file,n_nan,dt_med_ms,dt_min_ms,dt_max_ms,n_gaps,n_nonmono,raw_mean_1,raw_std_1,raw_absmax_1,raw_mean_2,raw_std_2,raw_absmax_2,raw_mean_3,raw_std_3,raw_absmax_3,raw_mean_4,raw_std_4,raw_absmax_4,raw_mean_5,raw_std_5,raw_absmax_5,raw_mean_6,raw_std_6,raw_absmax_6,raw_mean_7,raw_std_7,raw_absmax_7,raw_mean_8,raw_std_8,raw_absmax_8,rms_p99_1,normv_max_1,rms_p99_2,normv_max_2,rms_p99_3,normv_max_3,rms_p99_4,normv_max_4,rms_p99_5,normv_max_5,rms_p99_6,normv_max_6,rms_p99_7,normv_max_7,rms_p99_8,normv_max_8
Subj_01_Isokin_L_02kg_40bpm_EMG_data.csv,0,1.43994140625,1.43994140625,1.4501953125,0,0,0.0006073173124050863,0.0005231972577416505,0.0187468529,-0.0015998402446920981,0.00042822414812003257,0.0032132149,-0.0011370655296203452,0.000459704545814397,0.0021039965,-0.0019373109220090828,0.000590218122112152,0.0040400508,-0.006250756712267031,0.00018646505799999754,0.0069974903,-0.005779327872683015,0.00020147411408473823,0.0066201212,-0.001164401707184378,0.0003926663647140446,0.0026247026,0.0004552777501380563,0.00030171116081359147,0.0022953989,142.59734952985292,5382.87203726175,172.9166508203837,607.62522992148,66.45856218250023,216.280056489209,55.052572477139016,249.012709618735,82.53487043750943,271.179879202518,86.15491789055422,296.718319053054,97.80117680929155,381.464848618036,101.86934181097484,400.713867656651
Subj_01_Isokin_L_02kg_60bpm_EMG_data.csv,0,1.320068359375,1.309814453125,1.320068359375,0,0,0.001281821142165064,0.00046958364356911573,0.0022885324,-0.0011503553963445512,0.00045807796459607824,0.0022593499,-0.001401946618434295,0.00035673458893901495,0.002550316,-0.0020530693132371795,0.00039869976952985463,0.0037447931,-0.005833053351732372,0.00012594390327941987,0.0068284036,-0.005445108962613782,0.00015048774933772906,0.0064232829,-0.0016145283103092948,0.0002587182264606087,0.0030489923,6.402880725000002e-05,0.00028476503014274743,0.0016845703,92.71508396036012,331.659223547561,104.39977544481835,413.62145335774,77.44059978296858,360.591468206278,75.85451382400966,365.348346738382,79.25637145306752,300.465697886783,79.65675560982382,306.270643090408,97.53671334885483,329.598536465159,87.69543982978661,300.277124402354
Subj_01_Isokin_L_02kg_80bpm_EMG_data.csv,0,1.360107421875,1.35986328125,1.3701171875,0,0,0.0018333626696039216,0.0001633875777814228,0.0025331499,-0.001057355030772549,0.0002153612023508008,0.0023732185,-0.0016190346341509803,0.0004102690173838319,0.0027113915,-0.0022556616820921566,0.0004351280119551594,0.0033751489,-0.006229061235933333,0.00017279156398369175,0.0068673138,-0.005731069393737255,0.0002319402633850732,0.006591225,-0.0015404684772705884,0.00023550482770634497,0.0031637193,-0.00025773042686666665,0.0002085698501561998,0.0024407387,92.1425827088219,364.857502805831,101.97823430222282,506.689858689351,87.21579350342917,301.711349653996,89.12473591291378,329.260353854221,91.13133119007642,392.076905011235,91.83695384901878,425.216867400464,105.86205340211495,337.555722546232,101.57363410627606,350.22980553032
Subj_01_Isokin_L_02kg_St_EMG_data.csv,0,1.2900390625,1.289794921875,1.300048828125,0,0,-0.00029448244335111113,0.0006274980189822875,0.0020204545,-0.0023597293458370366,0.00038344779908592225,0.0034295083,-0.0009564572925007408,0.00031435683891300483,0.0018101693,-0.001077023760868148,0.0007363914398731658,0.0032790184,-0.0066162183951999996,0.0003815045862765452,0.0072833062,-0.006549003359662222,0.0003209736415834149,0.0071302415,-0.0012130148681214815,0.00020857999185139103,0.0022687912,0.00046943384211555557,0.00021436879499821704,0.0015060426,76.89298631350712,246.386729258917,79.38142345031466,259.015527510319,51.2852430763644,162.622470079685,45.03363324630758,148.010274130134,65.05006524207604,188.798386586683,65.35391703646252,206.332242041018,71.78516943912827,194.65283464937,71.08604881535962,238.528682641596
Subj_01_Isokin_L_04kg_40bpm_EMG_data.csv,0,1.280029296875,1.269775390625,1.280029296875,0,0,0.0013394923150641374,0.0003626506396241737,0.002310276,-0.001264665523857272,0.00018115844454232017,0.0024181367,5.902315378139116e-05,0.00045693909055720926,0.0020891191,-0.0005267422601969286,0.0007020433904448566,0.0054628374,-0.006449254210914183,0.0002178425201804331,0.0073325159,-0.0051156226267244816,0.00020951133991063247,0.0060419086,-0.00011357235521047876,0.0003343172243296417,0.0023929598,0.0014690936106052394,0.00032293301502446135,0.0039133076,125.3962640301962,534.897618544509,143.891066056335,632.585831973175,151.43654928153126,714.672217353105,149.33717832525528,854.103390929014,115.70503904368866,395.424101071094,115.69006697060435,387.725810645056,146.0545518948197,511.712660265838,138.80930847062427,466.010513442779
Subj_01_Isokin_L_04kg_60bpm_EMG_data.csv,0,1.31005859375,1.31005859375,1.31982421875,0,0,0.0007896067934795008,0.000199046141761427,0.0015232087,-0.001316350907060606,0.0002385575939327836,0.0024787905,-0.0005288880465793227,0.00047431960205210924,0.0021577836,-0.0017494636770178252,0.0006212700605932854,0.005131817,-0.006173738131532976,0.00013280335380170955,0.0070850374,-0.004984384987461675,0.00026191676109146395,0.0063343053,-0.0008926212180552585,0.00034902501832665236,0.0034724236,0.0007838984198912655,0.0002793738157747955,0.0024587633,122.11669829087893,481.092901407176,147.07634332579363,513.392002907877,138.25951078052245,576.287633120659,167.5925494940098,801.520097075698,130.2652666957368,538.840616337155,126.7855199923476,473.120847232688,152.12441862967785,496.111669558229,139.0527104036649,474.834893139892
Subj_01_Isokin_L_04kg_80bpm_EMG_data.csv,0,1.260009765625,1.259765625,1.27001953125,0,0,0.0006906304887145708,0.00014340370944934485,0.0013936043,-0.0020584891116666665,0.00029712877955186394,0.0031225206,-0.0006867425210918163,0.0004743242539425321,0.0020353319,-0.0020222693586826345,0.0005432938809122487,0.0052087787,-0.006430201889680639,0.0001795860318501897,0.0074689868,-0.005150698887718563,0.000184696537244733,0.0062856679,-0.0009616662471377246,0.0003101197806946196,0.003926754,0.0006430917696866268,0.0002762780273299174,0.0023091317,122.80986182809413,541.298935014386,144.1897817652194,611.695477612061,164.34916368389912,750.896655576466,171.67088970944283,783.534445183909,117.39443118325154,420.994403664209,115.4311797434275,493.415792836217,159.53755112034426,515.579347587252,154.09814795490016,417.694219609713
Subj_01_Isokin_L_04kg_St_EMG_data.csv,0,1.340087890625,1.33984375,1.35009765625,0,0,0.0012869104010530972,0.0004881354935798908,0.0020510675,-0.0004923738152979351,0.00021082398231630185,0.0013495446,0.0014723556466017698,0.00040024966183744415,0.0028819086,0.0015156034406312684,0.001048407620644303,0.0048276903,-0.0060381767786814155,0.0002775006911232636,0.0070661549,-0.006177522426088495,0.0003550698318289239,0.0074183466,0.0010019859265840707,0.00021553703916231927,0.0020956993,0.0029256496850383483,0.00023854900258532243,0.0041487697,94.19427943749042,319.833726850861,110.6549491077359,342.621588588014,99.21300906210301,312.244130218821,92.67204850975891,337.7995870042,105.78033833670014,360.878908544449,103.61713544420613,340.824543817332,111.67427845045584,369.426687957323,108.12210155166295,309.583789843506
Subj_01_Isokin_R_02kg_40bpm_EMG_data.csv,0,1.300048828125,1.289794921875,1.300048828125,0,0,-0.0060786112929845934,0.0022197650751705927,0.0118543627,-0.0041544192267156865,0.0018700594689678024,0.0099580772,-0.0032182948309229693,0.001988304617618594,0.0080984123,-0.003934252141830533,0.0015900832623726726,0.00927372,-0.011941810577438376,0.0017102587796052502,0.0169595722,-0.012590660329658263,0.0016128168076541692,0.0177480709,-0.005116120522242297,0.0017608161377273843,0.0104261404,-0.0013702947781246498,0.0018875000873448283,0.0070598605,73.96245719081747,505.777359507681,84.37973501782118,581.460011572519,56.96163046907921,385.551794117104,80.71625593565088,462.579605064474,36.04292105333366,261.289421074829,36.47937873378526,290.284509173324,66.67118102639563,231.330779272537,70.97264927711146,291.605920155284
Subj_01_Isokin_R_02kg_60bpm_EMG_data.csv,0,1.2900390625,1.27978515625,1.2900390625,0,0,-0.0025063945812284264,0.0005212934642947582,0.0043493272,-0.0001428976160642978,0.00033711655853711916,0.001227665,-0.002467716532379019,0.0006192139797396543,0.0035433772,-0.0004088609802978004,0.0006490575561818773,0.0023494721,-0.007105355996783418,0.0003169755998303616,0.0080366135,-0.007433332483607445,0.0002770348612434182,0.0081790928,-0.0012786906640981388,0.0004443269129167928,0.0028006556,0.0018528985836632826,0.0003951757627789103,0.0039662365,64.63622403778236,223.754805276813,82.56334733312764,308.393464485572,71.11096511349515,459.388448002893,84.49548157641897,394.075383864868,37.643393770857664,139.38360936294,38.55609075071886,119.820494910345,64.15509711924773,208.627479434894,70.20957552583619,234.699924936459
Subj_01_Isokin_R_02kg_80bpm_EMG_data.csv,0,1.3798828125,1.3798828125,1.389892578125,0,0,-0.0016486678421374044,0.0005322912790421677,0.0033536912,0.0007857317414792196,0.0005208254434571754,0.0021411898,-0.0018719770043443597,0.0002889584697063076,0.0032595636,-0.00041859439664122133,0.000280297553923329,0.0019214631,-0.005726670795986428,0.00026840294269413613,0.0066681863,-0.006089680853095844,0.00026117422818086676,0.0069803242,-0.0006251025569211197,0.0002613521648776161,0.0026144029,0.0024716745706649702,0.0002570001967574297,0.0038154603,67.21726759284772,443.036474680211,82.26058142116473,299.982726305857,48.75760798262591,200.493607127765,64.83945619452443,242.704039681032,34.95244405360598,117.068728202219,34.01698086384069,112.113782115501,51.35593434573572,196.512180326649,56.6513397040157,235.997256670389
Subj_01_Isokin_R_02kg_St_EMG_data.csv,0,1.210205078125,1.2099609375,1.22021484375,0,0,0.002720625203038889,0.0020412138698839254,0.0048076632,0.0023774083553138895,0.0014432464010965362,0.0043418887,0.01077979403455,0.0011963943544655573,0.0124643333,-2.136934052499997e-05,0.0007353539533491508,0.0015998841,-0.004752412898613888,0.000637253946082586,0.0063669207,-0.007521551728941666,0.0005543832791150925,0.0093881609,-0.0012611709019166666,0.00041244291975631945,0.0025729181,0.002270041303586111,0.0004518591714068761,0.0037716867,32.430280608625885,98.6293180874175,41.479216246139394,138.082271025341,40.63896122689583,144.423892725309,50.53538301796166,184.149514149535,20.894979832247284,77.0434899407255,21.05226509506553,75.9288979255133,44.70464542408338,136.880409838964,48.155166146502395,134.108421191048
Subj_01_Isokin_R_04kg_40bpm_EMG_data.csv,0,1.330078125,1.31982421875,1.330078125,0,0,-0.0007551339538818565,0.0005725331981065396,0.0021483423,0.001630041883971308,0.0002387873188027646,0.0025428773,-0.000954774397113924,0.0003367649727312984,0.0037118914,0.000355039340649789,0.00036202589467011233,0.0018828392,-0.005937142590226161,0.0004259025229582377,0.0072887423,-0.007170574701299578,0.00035656952537445373,0.0082560545,0.00045701783069873413,0.00032682986171627315,0.0028507235,0.004786664548676794,0.0003572477116098434,0.0075236321,75.29693851928866,266.6747787184,86.30965111158034,297.060186218391,92.83361225594459,674.3852691621,105.18809964419634,452.415689365359,61.13855862427973,201.440851228317,60.131568955025394,195.725830967657,92.23406670544567,393.037443194174,101.60301199461465,429.601510433791
Subj_01_Isokin_R_04kg_60bpm_EMG_data.csv,0,1.329833984375,1.31982421875,1.330078125,0,0,-0.0006068053872399267,0.0004909793672493502,0.0025752068,0.001967419500554945,0.00029813707107701794,0.003280163,-0.0002673135545897436,0.0003518273452196464,0.0184387211,0.0005298384737051282,0.00028908599843775165,0.0018756867,-0.0055461077608333345,0.00025503362007669924,0.0066910745,-0.006556222568366301,0.000273053632368042,0.0080080032,0.0007016575957637361,0.0003145575521556802,0.0024684907,0.005049590514891941,0.0003218309535107481,0.0071545602,80.82372781432538,366.210373330377,97.55945325096891,423.573110961732,112.8626810373996,3339.50600651733,112.04012115222716,555.69088844188,55.107110759567476,189.918728002605,53.861299650122575,188.406811589803,81.95761842573505,295.823925935804,94.59724151734352,312.774383538911
Subj_01_Isokin_R_04kg_80bpm_EMG_data.csv,0,1.330078125,1.329833984375,1.340087890625,0,0,-0.0014567303990705987,0.0007939239881039272,0.0031568529,0.0011784304283127792,0.0003521472779772907,0.0025440217,-0.0003501699910223414,0.000401576799238234,0.0028678896,0.0004187506624325291,0.0003890987765854224,0.0026195527,-0.006304849110613049,0.0002724650638159563,0.007525349,-0.006992218589347632,0.0002720272194581637,0.00838337,0.0009716542101823056,0.0002630662459643871,0.0040357593,0.005228994893747989,0.00030607260637326855,0.0091458326,98.27239790237367,396.217250167945,121.1262403835352,392.9178267044,130.5247795697851,671.421569994603,135.94921080379348,602.523485982546,65.12295830735714,331.578528722785,63.670509955296204,323.790126769847,99.41802569289221,431.882982874583,117.4383515760512,549.243096816867
Subj_01_Isokin_R_04kg_St_EMG_data.csv,0,1.239990234375,1.239990234375,1.25,0,0,-0.0006813574037891737,0.001034642710981479,0.002922249,0.0014282296077635327,0.0011775991287495682,0.0031085017,-0.0010928774839145299,0.0006934390698354413,0.0027683259,0.00045954831626495726,0.0005913085517232198,0.002256775,-0.006489526148803419,0.0008816194616404229,0.008248616,-0.00787907807605983,0.0005953107328782462,0.0092931753,0.0003573890076039886,0.0006759430811023187,0.0023921013,0.0042181562317179485,0.0006098419403277073,0.0065829279,49.824167776535894,169.297456865241,49.06198195233845,174.558573189148,80.12693985702893,543.100621634827,79.97265963354269,291.643916779575,45.73580490548839,174.922391943291,43.92169537712018,174.251354037975,67.11472218571852,281.254857315379,71.36907198984308,242.61280533353
Subj_01_MMH_Bim_L_02kg_Trial_1_EMG_data.csv,0,1.110107421875,1.10986328125,1.1201171875,0,0,-0.0080586099441324,0.002155893124675928,0.0120483404,-0.00439189781023676,0.0021407872035910996,0.0084383013,-0.002578006384266355,0.0010018457497492713,0.0042860988,-0.0011487205395295948,0.001060473612158008,0.0057595256,-0.002551895078665109,0.00040368379325778336,0.0035880089,-0.009044009127699376,0.00017699119861695832,0.0106112482,0.0007878088204501557,0.0009941731646679304,0.0026055337,-0.0018784249616214956,0.0009414083060850076,0.004818249,55.99025941083176,318.631679408024,67.33227302647352,342.746934836554,37.47291660469598,146.27874118147,59.23681813926539,632.513536761346,30.896795003502376,213.697551582136,22.28285347995717,150.357178161221,48.237843335162005,175.710658607317,57.03849819725166,283.319198214636
Subj_01_MMH_Bim_L_02kg_Trial_2_EMG_data.csv,0,1.1201171875,1.119873046875,1.130126953125,0,0,-0.012051326276700892,0.000724567609621331,0.0137612345,-0.008530133404837797,0.0005525525705386047,0.0096897129,-0.0035714586413482146,0.0003576190111891972,0.0043750764,-0.0008676391445312499,0.0008615094130837182,0.0034094811,-0.001298388589421131,0.0008807865894688234,0.0028707506,-0.0085259717844375,0.00034224598656873776,0.0094682695,-0.000728339759107143,0.00035252457867210226,0.0019037247,-0.003378719890907738,0.0002924381761422166,0.0043018344,64.30862985082919,261.953589764099,65.14840700943152,232.695991178604,38.187142796757364,156.973022664223,63.08714355380969,280.716618434113,40.35816441550605,199.897933706047,27.896211341068323,129.626872180146,52.02871540188397,176.493616617502,51.939867539261634,187.394800960481
Subj_01_MMH_Bim_L_02kg_Trial_3_EMG_data.csv,0,1.27001953125,1.259765625,1.27001953125,0,0,-0.011762537651016536,0.0011115884567749082,0.0151485447,-0.008570044179329852,0.0012310351008310515,0.0117164617,-0.0026731920887867714,0.0002985878258439259,0.0037239075,3.572099610269801e-05,0.0006706295000973222,0.003126526,-0.000520874658132289,0.0005563462365952003,0.0014545441,-0.008255499998898172,0.00041723430907137255,0.009220791,-0.0008108896749068756,0.0007169076958085976,0.0027133944,-0.0032527692521740646,0.0004263649880043204,0.0050992016,70.94425020834059,259.7868166596,67.4428287844658,339.207765177997,40.83793951493358,182.625366284327,52.06054118432468,325.318590622049,30.425648062904273,151.817879190042,21.410977052411486,95.0344076253267,52.62908667907835,189.903353211557,54.52114027744893,272.678616669384
Subj_01_MMH_Bim_L_08kg_Trial_1_EMG_data.csv,0,1.219970703125,1.2099609375,1.22021484375,0,0,-0.00938753677818647,0.0021096120856685784,0.0148212435,-0.00660336304829703,0.0022698616942266416,0.0127741816,-0.002509424428376238,0.0012596709938655086,0.0060221674,-0.0001330183160495049,0.001542551730581947,0.006367207,-0.0007884935062227723,0.0005053707899924771,0.0022584917,-0.008275014327750825,0.000500566998872693,0.0095881466,-0.0003524879606320132,0.0014271157258043102,0.0040148739,-0.003221798366371287,0.0009638491300290088,0.0066787722,192.44341171287556,842.36342470327,221.05446846877257,954.287078344083,87.13759338349642,434.827438382608,136.20153548172252,551.718296586368,51.17418577804219,217.674807553437,37.885000635249625,155.205044875361,89.64709152227981,310.756868304532,98.7253843986266,340.475731751191
Subj_01_MMH_Bim_L_08kg_Trial_2_EMG_data.csv,0,1.219970703125,1.2099609375,1.22021484375,0,0,-0.016380872490833743,0.001818550735253183,0.0195848476,-0.0159168949279525,0.0017902690672439517,0.0191745758,-0.006103265733189189,0.0010905490564800965,0.0082952501,-0.002010036248717445,0.001778295770219588,0.0058084489,-0.0007238359001359541,0.0009951209293736964,0.0025237084,-0.007825098124933661,0.0003867416316231285,0.0094782831,-0.005260653903366093,0.001253888052512827,0.0074758534,-0.006076840931020475,0.001055871634490512,0.0089063644,184.29974620558627,732.239223856306,221.8370912953819,1077.81075801337,86.42127304378342,330.284396156574,122.555716991949,522.906782872106,52.36328189581928,373.203377539523,37.984588513003274,260.544732918734,85.4835553460405,356.699024058369,98.40594140039222,370.258215274659
Subj_01_MMH_Bim_L_08kg_Trial_3_EMG_data.csv,0,1.18994140625,1.179931640625,1.190185546875,0,0,-0.005290468431537124,0.0026279614109197855,0.0110283857,-0.002028861726025276,0.0031159672304974548,0.0089710243,-0.0006147822499684045,0.0020512039789209718,0.0050551416,0.001138908354129542,0.002278849573023166,0.0060161594,-0.0014119927119336493,0.0005734736349643164,0.0030301095,-0.008397657070248025,0.0003905275771441767,0.009706879,0.0014835327535545023,0.0017078135265898224,0.0179111492,-0.0012783006766492893,0.0015153517351271133,0.0053263665,163.3126947004679,705.50540538535,179.75978463598642,663.363939263319,89.149227592681,420.495139577756,137.525253154918,615.351039302751,50.109431758025416,204.875882903544,37.22960307090176,163.605015943682,94.10446110695041,2176.15918546803,104.97553111440845,363.777820960096
Subj_01_MMH_Bim_L_12kg_Trial_1_EMG_data.csv,0,1.169921875,1.159912109375,1.170166015625,0,0,-0.009902237139285383,0.00229932832970906,0.0157573707,-0.008683836852941995,0.002753893371474184,0.0155422213,-0.0027791374333518944,0.0012143168169564368,0.0057003023,-0.00036390634618252134,0.001540857611783952,0.0050791744,-0.0012947940600262955,0.0005674686692320785,0.0027294159,-0.007918390764205722,0.00033904686064729266,0.0094705587,-0.0012830804172884764,0.0012641477823099707,0.0048437119,-0.003126292941225058,0.0010450536783117902,0.0074684145,260.7480375171596,960.133229053233,272.6108894309712,1039.7952034791,105.29759141781652,374.983016692346,171.0501706742047,572.877252837343,58.82075497878277,319.538570588954,42.47376527079018,205.36417617224,115.95736810665285,378.898803577681,133.53615832280533,649.777262267717
Subj_01_MMH_Bim_L_12kg_Trial_2_EMG_data.csv,0,1.22021484375,1.219970703125,1.230224609375,0,0,-0.012186300053784172,0.0008800749311914751,0.0144893648,-0.011982851658864908,0.0005543112815065349,0.0145889288,-0.0031311200244540367,0.0006184343643107544,0.0045255665,0.0011070229500143884,0.0013526395565836365,0.0032329562,-0.0007305581702701838,0.0004888067491902784,0.0018725396,-0.007307419608572343,0.00025072636845709697,0.0084042549,-0.0031783599426107112,0.00048449437829754566,0.0051163677,-0.003952202935003996,0.0005159777463069195,0.0083496096,190.12936277541073,795.197870307773,204.10999643225523,933.866398269969,94.04585085233634,377.563501868932,135.9252504570947,545.294606675888,56.998995925134956,231.177441465238,41.42408631711441,164.007177153722,115.99116014967284,426.523390637448,135.30887589110344,709.320342080271
Subj_01_MMH_Bim_L_12kg_Trial_3_EMG_data.csv,0,1.22998046875,1.22998046875,1.240234375,0,0,-0.009255233046315358,0.0008214018185779124,0.0119344713,-0.010732960951228759,0.0008739905671230878,0.013449383,-0.0017844656951062094,0.000779651090733207,0.0037098886,0.0025238088440751633,0.0013212153962544534,0.0044013979,-6.32162681764706e-05,0.0003850882841814476,0.0018716813,-0.0075525979121307185,0.00028041342598990484,0.0086342813,-0.0023324203767924835,0.0005899428326736634,0.0050745965,-0.0027605196115441178,0.0004133755329476066,0.0057824138,191.17273139270387,722.188924692409,213.30223507529678,801.4938582474,96.25077781499436,410.120668560604,157.00326598641618,609.979824076916,54.01298781389073,197.886588449351,39.381060883767034,146.750259754702,104.47378253898425,461.692199144141,116.30102821173162,443.248981476533
Subj_01_MMH_Bim_R_02kg_Trial_1_EMG_data.csv,0,1.080078125,1.079833984375,1.090087890625,0,0,-0.004349061916955508,0.0010021792206354346,0.0075877192,-0.004841505916832969,0.0010927541953670125,0.0079525001,0.006622983445699489,0.0016179469316236822,0.0086614611,-0.0010088171827381473,0.00039446095121613934,0.0043252949,-0.010131559925988331,0.0008528206357257754,0.0135632521,-0.007129446428762946,0.000497838756614854,0.0110881813,-0.0009945644961050328,0.0006093670053037971,0.0050725937,-0.0038627862851203505,0.00039502510772156395,0.0073336605,61.21495506718264,336.043723898695,68.23100583694243,533.1009200628,54.941401452024245,284.228685830705,39.94619871919321,246.066647763789,33.25861904876338,159.519823260557,29.808302690133853,125.871043781184,60.71086326452867,335.193841207724,43.733229847860336,215.344995802996
Subj_01_MMH_Bim_R_02kg_Trial_2_EMG_data.csv,0,1.10009765625,1.08984375,1.10009765625,0,0,-0.00578303687214862,0.00030448590040851317,0.0068922048,-0.006150095853489031,0.00032040375703499256,0.0074126245,0.008172190631728238,0.0015452840176792728,0.0097955707,-0.0006442292279363057,0.00037879438563443585,0.0015051842,-0.011020388036094834,0.00037681369286699575,0.0119396215,-0.006094649821258316,0.00029796152728822986,0.0078309067,0.00038998170879971686,0.0004027145256807962,0.0014536858,-0.003675881222972399,0.00039441701192909957,0.0048917774,54.48682349980744,248.378807521405,49.258714549827204,186.866457714665,38.71500787751511,843.358026116156,32.37798092795756,139.465252881312,28.87501380777718,191.513028587067,39.58262553589346,309.43823283844,48.449496490181474,185.261222449554,31.09389881907616,138.714159504154
Subj_01_MMH_Bim_R_02kg_Trial_3_EMG_data.csv,0,1.25,1.25,1.260009765625,0,0,-0.006018146018373738,0.00040104678850323255,0.0074355127,-0.0057304964266464645,0.00043227550397788696,0.0073096277,0.008148536937771043,0.0011306861659049568,0.0097306259,-0.00061449491293266,0.0002745340064693856,0.001580143,-0.010527472440609429,0.00032946401326087527,0.0114114769,-0.005911102239781145,0.0004052405768915132,0.0070286752,4.315109619696972e-05,0.00036022738657374547,0.0014657021,-0.003969529315444444,0.0004280813474146158,0.0052740099,76.72442072308212,412.362254262765,66.93307582583797,286.691970232552,56.155686706884026,391.277390853593,36.9763710641262,289.98706558446,23.807456743762494,201.802132962764,22.557493810170367,143.763797865905,53.101560310908226,170.22616502741,33.18145510387643,126.357219929968
Subj_01_MMH_Bim_R_08kg_Trial_1_EMG_data.csv,0,1.280029296875,1.269775390625,1.280029296875,0,0,-0.004866894899536281,0.0010868760539770716,0.008316136,-0.004944231301678066,0.0009522915665443431,0.0083187111,0.00802823581264554,0.0011187729643518914,0.0097658159,-0.0008900040539182653,0.0006304901532819023,0.0032386782,-0.010322648012728941,0.0005314979069654486,0.0118509298,-0.006212990860475396,0.0005923332481527919,0.0073119164,-0.0002403589390358632,0.0004512446955434531,0.0031147958,-0.004008974910095079,0.0007268664545752731,0.0066029551,189.39488902004936,676.160199603117,170.27231277673312,613.579467199283,113.91715049398151,741.986957588434,82.32242970221836,650.986061518619,41.00919357606002,205.012932168294,39.30762991370335,169.26522630424,109.41400955630365,608.049338840176,76.59042775639881,348.342781560632
Subj_01_MMH_Bim_R_08kg_Trial_2_EMG_data.csv,0,1.25,1.25,1.260009765625,0,0,-0.011706384886042311,0.0005960581459983047,0.0143051157,-0.009557059489205858,0.001173075053870621,0.0120529179,0.00835162316609764,0.002011594969465027,0.0109296804,-0.003805875443861676,0.00035063275777182025,0.0047810557,-0.013676199912717657,0.000749609568933861,0.0153963091,-0.006841823322514239,0.0002539514106670315,0.008187104,-0.0019181195057542716,0.00030764917973462346,0.0047410014,-0.007682960156063467,0.0005921657191853422,0.009563542,176.4169686737192,716.915027486658,162.94531889122112,641.079154741735,91.34895846564969,367.230747083086,70.20668569526012,278.762845417185,37.77676935541553,212.075563150614,32.26618292630451,177.326007724445,105.6048696862499,455.471627727276,66.43253898086846,332.53905579263
Subj_01_MMH_Bim_R_08kg_Trial_3_EMG_data.csv,0,1.199951171875,1.199951171875,1.210205078125,0,0,-0.0018204120382890874,0.0012113582113147162,0.0054951669,-0.0016155433248113817,0.0014962977007925479,0.0057435036,0.008824732366526275,0.0011643831641853673,0.0107760429,0.0014928025315585256,0.000980058904006743,0.0030896189,-0.009625026043313379,0.0005861195500886508,0.0114217764,-0.00633655674224551,0.00028020802864072277,0.0079270368,0.00034190083887774224,0.00031201876833918,0.0030032159,-0.0021039795623310725,0.0004682120014094764,0.0042546275,183.77746887144758,868.552702992215,173.15982627380367,621.230174400177,116.00921379355148,482.060902854219,80.42900916349431,403.222649731673,40.803693755053,149.716492772722,37.56157806370672,158.480548556223,91.68982010102395,430.072643425036,69.99931806476863,322.444432321319
Subj_01_MMH_Bim_R_12kg_Trial_1_EMG_data.csv,0,1.170166015625,1.169921875,1.18017578125,0,0,-0.00471397104595662,0.0018319558641937761,0.0096004494,-0.0043315122531742715,0.0013875724144790502,0.0086025242,0.009618259186896036,0.0014591760936809685,0.011560536,0.00044064073327449517,0.001065365332967884,0.002642727,-0.011331523619419597,0.0004102676627415892,0.0126746185,-0.005745409360181003,0.0002627625971320157,0.0068561556,0.0013774715768840688,0.0007254342182572792,0.0037396431,-0.002247986822140613,0.0009371071849476597,0.0052448274,295.6508078571111,1413.10363219174,248.16582445474305,927.775052856311,162.22993397333184,507.356403244541,108.83693805000871,530.218462142132,43.3479521143964,188.846304288109,38.83760898406171,174.674250776566,156.21680705976976,748.57990795805,97.05457753568665,317.47312383305
Subj_01_MMH_Bim_R_12kg_Trial_2_EMG_data.csv,0,1.22998046875,1.22998046875,1.240234375,0,0,-0.008419461615736508,0.00048089180615008966,0.0123084076,-0.006313088201795238,0.0006212919205869335,0.0091795921,0.009660453796555557,0.0021020365418896237,0.0125965122,-0.0014857918068253968,0.0005454445528830106,0.0031651498,-0.013127979431715875,0.0009634128486842201,0.0151628498,-0.006261782056853968,0.000285303091679321,0.0076395036,0.0002253705119952381,0.00037002082646981423,0.0031388283,-0.004512498077720635,0.0005222290001931453,0.0068902019,231.01997267256291,1096.61971248073,201.9181874076272,778.023513489114,140.08495405899174,555.065203421985,105.22854754027585,436.920324871621,42.167006749036645,179.105036225172,37.34941321492057,150.315760705099,129.465768450359,567.113385743453,91.86591009910521,377.184220078699
Subj_01_MMH_Bim_R_12kg_Trial_3_EMG_data.csv,0,1.280029296875,1.269775390625,1.280029296875,0,0,-0.006760360715172919,0.0006228712548336752,0.0100118639,-0.004654780429008156,0.0005813059933984062,0.0073030475,0.00914839142870636,0.002301084747547082,0.0119467741,-0.00035416776377161503,0.0007125405105598292,0.0029814721,-0.013422296964553018,0.0006182981678170771,0.0147963529,-0.006095861304101142,0.00020230131062093723,0.0070349695,0.0014024572236068513,0.000354356972184701,0.0032166482,-0.003593076598450245,0.0005390596245848647,0.0059935572,228.14250680589686,804.458593521638,213.05815045979492,749.073770708533,135.1345640226178,537.14367817475,84.86750831610753,561.797113699343,47.37998394299874,164.982456146748,41.339193495191026,146.418046333728,126.32350664360588,496.332652361826,92.23542827706513,311.089656618045
Subj_01_MMH_One_L_02kg_Trial_1_EMG_data.csv,0,1.099853515625,1.08984375,1.10009765625,0,0,-0.004355201679935546,0.0006067187772198001,0.0107500078,-0.0015023634093746993,0.0006451163362798393,0.0052680019,-0.001420577028897547,0.0009658150105782664,0.0033170702,-0.0010658998435949976,0.0011642102370631475,0.0030595781,-0.0019469256432900432,0.0008014724894758954,0.0036952973,-0.006233661583650793,0.0007732956507895886,0.0077679637,0.0014912304438816737,0.0007801775007280599,0.0057097436,-0.0011181876179509381,0.0010199927529950278,0.0037965777,16.239915221207113,130.990076558075,80.93984739797558,358.947408586962,58.14122179669307,227.737452646063,59.00703193944824,252.122536760178,33.42410664354937,145.898289921904,31.926111804447697,138.813576545485,50.682070445812485,171.330510271101,65.99997405699122,280.331680310327
Subj_01_MMH_One_L_02kg_Trial_2_EMG_data.csv,0,1.1201171875,1.119873046875,1.130126953125,0,0,-0.00470451717072394,0.0007495164476750991,0.0063265804,-0.0015559361742703323,0.0006299675199530571,0.0035556795,-0.0015158596658636884,0.0006660051417054893,0.0027834894,-0.0008047963035395189,0.0008677402273339371,0.0021363259,-0.0017682536617342499,0.0006836072723846998,0.0029474259,-0.006583495003828179,0.0007268862038206521,0.0080503467,0.0016832427736208477,0.0005272141096924382,0.0041479114,-0.0013996330086093929,0.0005945085620097617,0.0038125992,18.737423283796847,74.9712167452755,95.89471202298627,409.159854410966,49.80126842789927,206.949210876619,50.56023003557082,181.986983536111,30.04958833365441,149.368203039643,26.360195247847816,169.044093939086,51.1502098350083,188.329020169941,76.54131299395807,281.292522787875
Subj_01_MMH_One_L_02kg_Trial_3_EMG_data.csv,0,1.130126953125,1.1298828125,1.14013671875,0,0,-0.005114568640250739,0.0005251254885995307,0.0063577653,-0.0021906994918982304,0.0005505822556452261,0.0036741258,-0.0006960732369144543,0.00044785173304010147,0.0017912865,0.000498896461961652,0.0006219818045015021,0.0021612169,-0.003034150110390855,0.0005512239713330529,0.0043127062,-0.009438528310371681,0.000589293975567968,0.0107920654,0.0019852688305693213,0.0004690258798197812,0.0040795328,-0.0007727416755870206,0.0005137663531940464,0.0035725594,22.032633423830084,76.7998960359807,87.3390154745511,325.848957199373,65.94289175069474,233.91964276483,76.1801251392151,297.097340114201,34.219500601019085,140.128480721835,32.5733409049249,131.362402544023,60.80750539180204,231.147293227644,92.15870710987188,444.573524825191
Subj_01_MMH_One_L_04kg_Trial_1_EMG_data.csv,0,1.090087890625,1.090087890625,1.099853515625,0,0,-0.005726222238229308,0.0006367284229832789,0.0074646953,-0.0026650388284586183,0.0005818270037601936,0.0041104318,-8.714199667577831e-05,0.0005597959794703437,0.0019286156,0.0018897688198542143,0.000790329505043351,0.005300045,-4.549071464692492e-05,0.00113647199026395,0.002684498,-0.007010233622566439,0.0006290344150953245,0.0083561903,0.001994914352153379,0.00046939983869024,0.0044935229,-0.0011303618350721335,0.0005219700849752806,0.0054957392,18.305436946439418,126.388891877571,79.8972839565359,436.244922593591,71.9526825943387,288.334212309288,92.91301058608484,486.286298812412,43.42840264712874,174.077352948052,40.75373525268882,167.534951946952,77.04607786191906,335.935940924789,120.36653625302625,538.362456418719
Subj_01_MMH_One_L_04kg_Trial_2_EMG_data.csv,0,1.10986328125,1.099853515625,1.110107421875,0,0,-0.006255703027850242,0.0009758536865383536,0.0080563547,-0.0036590510914219004,0.0008408669057268935,0.0057766917,-0.00011579590527536236,0.0006552742612755068,0.0023763657,0.0020287166413864737,0.0011199176714139748,0.006065655,0.0003357287277858293,0.0005839432271013921,0.0025031092,-0.006636497836020933,0.0003974767902902768,0.0078423508,0.001787190324571659,0.0004963455849454061,0.004222298,-0.0012779034919855072,0.0004987844133160592,0.004228306,22.220266782640167,98.7716726004769,91.10987101939405,360.095967376696,75.36544930597262,311.621529768879,84.12314997724883,426.285334857586,42.90610754161904,181.818046814509,40.331259603268975,174.094656169406,69.7986325786912,264.652467331903,116.36989534754196,447.078011220552
Subj_01_MMH_One_L_04kg_Trial_3_EMG_data.csv,0,1.080078125,1.079833984375,1.090087890625,0,0,-0.00793962459970739,0.0011205943876904242,0.0130230905,-0.00522588267688537,0.0012324589508160113,0.0082571991,-0.0005777595561191553,0.0006662615809523403,0.0021397592,0.0020901032802579187,0.0010035370362711296,0.0060264589,0.000274652439158371,0.000810199472518375,0.0024224282,-0.006493389656837105,0.0004803572810718793,0.0083015449,0.0013581412450030166,0.000639890373142336,0.0034861567,-0.001252086218085973,0.0004505397804667234,0.0045813564,24.165784995826353,346.867551308714,88.75037890239766,461.85908755477,72.93072344053306,337.96427283784,84.86110283418583,297.040361954735,42.557221247418596,199.889393509199,39.09277893544083,149.411494122207,67.25538271445853,253.3725166943,111.5407046008666,583.622225128244
Subj_01_MMH_One_R_02kg_Trial_1_EMG_data.csv,0,1.139892578125,1.1298828125,1.14013671875,0,0,-0.005324547755980247,0.0010312145000477063,0.0168505684,-0.005293266447071604,0.0010028794313141633,0.0170791633,0.0030800234472469134,0.0015769568622854464,0.00951376,-0.0034210684639024687,0.0009309779712647095,0.0150953298,-0.01130439393550247,0.0014350694110701273,0.0226638801,-0.008956563252455555,0.0009869193430506594,0.0204545986,-0.0024439763780493826,0.0009770973346111965,0.0139451986,-0.004376363369150618,0.0009864891328856126,0.0155536653,98.27748055522456,448.103979725589,84.44463336922128,466.845485080023,60.91471088230482,419.157036125096,62.928459252449365,394.106077208966,33.10985638506485,284.88340020233,33.214851948716294,219.962618203629,87.68296107086925,338.178359024084,52.467198446861,242.308873321096
Subj_01_MMH_One_R_02kg_Trial_2_EMG_data.csv,0,1.070068359375,1.06982421875,1.080078125,0,0,-0.005778192374069472,0.0024947931066400023,0.0315854102,-0.005760972980255177,0.002547554351180586,0.0318328887,0.0027046629184729457,0.00272199891475108,0.0236623771,-0.003238200343199733,0.002543571656796504,0.0292493831,-0.013269865752665332,0.00246806566747665,0.0381626152,-0.009952148845959921,0.002615282504848003,0.0350950249,-0.0031321038679706075,0.002632832619387573,0.0286937729,-0.004917194131577822,0.0025897743293548164,0.0301171318,99.99930301334284,652.906265950569,84.27201972653522,595.443248060942,73.63891609086436,627.722862740885,64.04457639925687,647.008827027061,34.2794663882569,413.29551159041,30.26808419656194,322.158168010954,85.30136233603632,381.96791634026,55.311033847504184,340.456970183247
Subj_01_MMH_One_R_02kg_Trial_3_EMG_data.csv,0,1.099853515625,1.08984375,1.10009765625,0,0,-0.004406185937670175,0.000933293488709387,0.0068956376,-0.0047538081780463155,0.0009469372878284453,0.0073499684,0.005139109614150175,0.002535276843399119,0.0088325506,-0.0012575854036042107,0.0009952075897431353,0.0037453652,-0.01134152913196772,0.0006138925140269137,0.012854577,-0.007428474008237194,0.0007562966047688368,0.0090176584,-0.0009801584466933332,0.001175211971773148,0.004040909,-0.003373534973122807,0.0011572470621710779,0.0064106942,86.26283955816533,467.533013346597,67.52825935911632,350.314358133709,63.579558494595666,469.922890210681,64.45728942719703,326.78328529633,31.335154181878625,230.433529938167,30.299729445121198,185.362177719716,98.5452980908044,612.514586497304,64.91124289986769,307.170671823446
Subj_01_MMH_One_R_04kg_Trial_1_EMG_data.csv,0,1.080078125,1.079833984375,1.090087890625,0,0,-0.008490832125066974,0.004306021830921019,0.0368462577,-0.008582585929056197,0.004353306985968516,0.0371409431,0.006189838541716705,0.004211402510448933,0.0223205574,-0.0033358453705296383,0.004395023990418361,0.0323321372,-0.013418298632440338,0.004387428442872527,0.0419780761,-0.00888660747634642,0.004333143332745684,0.03789654,-0.0033646593423063893,0.004298068510091314,0.0323507339,-0.007437401687023865,0.004279334658610557,0.0361035354,108.63344304342247,571.141523745508,99.36840576010482,547.433727037955,113.62153852347174,546.152259609867,101.7096786211486,553.164454688167,54.177935547615576,361.332641938172,46.059380594106315,277.004846873758,142.41599018129392,556.357607771544,91.26936766233547,383.046540080863
Subj_01_MMH_One_R_04kg_Trial_2_EMG_data.csv,0,1.080078125,1.079833984375,1.090087890625,0,0,-0.00860473045604404,0.0012729690332337878,0.013425923,-0.008498488178103263,0.0012775774184653123,0.0133083351,0.0070108184588276385,0.002511045967967043,0.0100001339,-0.0025357706425451786,0.0013267030540890462,0.0075190547,-0.013116409082742598,0.000995043165910487,0.0167887695,-0.00789652076695672,0.0012591880427736404,0.0119765289,-0.002452669243337889,0.001445760965888915,0.0080932621,-0.006728308892311314,0.0013994389651341191,0.0126957903,91.00626974271721,376.518539013343,85.13531084337723,307.09831203463,88.42626284380205,380.133407018518,77.62453574645362,326.656447512051,47.03433903999556,215.205974054579,40.687390173541885,177.219920475982,128.26863521043157,712.458586400945,92.96434080494689,375.375838796026
Subj_01_MMH_One_R_04kg_Trial_3_EMG_data.csv,0,1.080078125,1.079833984375,1.090087890625,0,0,-0.009024726155680304,0.0031106535934530004,0.0347854644,-0.008709609865157576,0.003131037774570697,0.0342410095,0.004489840691660606,0.003936830389612808,0.0219091419,-0.003667925690062121,0.003180719234512636,0.0297772419,-0.013928046777356061,0.0028968340989799814,0.0396406204,-0.009479545845460605,0.0030462215288838044,0.0359868072,-0.004199367622999999,0.0032919068147618,0.0307843219,-0.00781343133766818,0.003157093561697699,0.0339672118,89.71535529686804,957.384631761578,79.10012789329045,901.74891293413,99.082536046839,920.08362348299,83.59767027713406,893.42265757761,50.73590559243784,589.597105993535,42.47010340506628,448.211723875203,125.8638354694462,624.245349432288,93.62519388833698,556.330966394259
Subj_01_MVC_Isokin_L_EMG_data.csv,0,1.320068359375,1.31982421875,1.330078125,0,0,-0.0012062666616629212,0.0003966480700159481,0.0020090104,-0.0036146283431385774,0.0008479399590845763,0.0046648979,-0.001847849209196005,0.0014011014813922348,0.0184464455,-0.0015704514488539328,0.0013118564114742,0.0035765648,-0.009004548046154807,0.0003891029219335442,0.0100891115,-0.007592774315790262,0.00036860334254873326,0.008720112,-0.0004884593732933832,0.0008787159755226473,0.0031871798,0.0012048879302072409,0.0007705602213737852,0.0048551559,,,,,,,,,,,,,,,,
Subj_01_MVC_Isokin_R_EMG_data.csv,0,1.449951171875,1.43994140625,1.4501953125,0,0,-0.0002733236303792049,0.0003740912617478604,0.0018499375,0.004510773161067278,0.0003745759173110978,0.0057045938,0.0029189188749541286,0.0007449750305779594,0.0039276127,0.0018543217984006118,0.0005185805974313421,0.0025136948,-0.006053224876134557,0.0003403389180453996,0.0078171734,-0.005640058307645259,0.00047074612990175523,0.0077053071,0.003476014602737003,0.00041357510225478955,0.0068072323,0.006830945299464831,0.0003962542105260443,0.0102270134,,,,,,,,,,,,,,,,
Subj_01_MVC_MMH_Bim_L_EMG_data.csv,0,1.31005859375,1.2998046875,1.31005859375,0,0,-0.004771146278653552,0.0015325757572214466,0.0109525686,-0.003146862722419672,0.0010973888826248121,0.0074675563,-0.001564261097451366,0.001154913638721436,0.0042119981,-0.0010616813753202186,0.0013548533279820307,0.0040555,-0.004592620801960655,0.0017967745517283693,0.0123447422,-0.00854372564088306,0.0017767238104158453,0.0167032257,0.0009465502851322405,0.0010432804190277632,0.0029909136,-0.0005152486866010928,0.0012575161640305391,0.0043642046,,,,,,,,,,,,,,,,
Subj_01_MVC_MMH_Bim_R_EMG_data.csv,0,1.219970703125,1.2099609375,1.22021484375,0,0,-0.0018348278600555557,0.0004032095932526127,0.0031022073,-2.6091301681623962e-05,0.0005364649461517347,0.003504181,0.00199193422541453,0.002033230023312354,0.01007309,-4.390905581196581e-05,0.0012113019498335969,0.0054553989,-0.009858580531623931,0.001582942767632687,0.0158952717,-0.009165497987871795,0.001641888493080011,0.0162162781,-0.002146267509854701,0.0009128041461156732,0.0037988664,-0.0030510750810363247,0.0006295414704195035,0.0059606554,,,,,,,,,,,,,,,,
Subj_01_MVC_MMH_One_L_EMG_data.csv,0,1.31005859375,1.2998046875,1.31005859375,0,0,-0.004771146278653552,0.0015325757572214466,0.0109525686,-0.003146862722419672,0.0010973888826248121,0.0074675563,-0.001564261097451366,0.001154913638721436,0.0042119981,-0.0010616813753202186,0.0013548533279820307,0.0040555,-0.004592620801960655,0.0017967745517283693,0.0123447422,-0.00854372564088306,0.0017767238104158453,0.0167032257,0.0009465502851322405,0.0010432804190277632,0.0029909136,-0.0005152486866010928,0.0012575161640305391,0.0043642046,,,,,,,,,,,,,,,,
Subj_01_MVC_MMH_One_R_EMG_data.csv,0,1.219970703125,1.2099609375,1.22021484375,0,0,-0.0018348278600555557,0.0004032095932526127,0.0031022073,-2.6091301681623962e-05,0.0005364649461517347,0.003504181,0.00199193422541453,0.002033230023312354,0.01007309,-4.390905581196581e-05,0.0012113019498335969,0.0054553989,-0.009858580531623931,0.001582942767632687,0.0158952717,-0.009165497987871795,0.001641888493080011,0.0162162781,-0.002146267509854701,0.0009128041461156732,0.0037988664,-0.0030510750810363247,0.0006295414704195035,0.0059606554,,,,,,,,,,,,,,,,
Subj_02_Isokin_L_02kg_40bpm_EMG_data.csv,0,1.909912109375,1.900146484375,1.91015625,0,0,-0.003955858875126761,0.0010837209659858777,0.0062067034,-0.001967430712954929,0.0010620428448909476,0.0043942453,-0.0019085880241070427,0.0011700458005698827,0.0039344789,0.00012212153527042254,0.0008214661097566131,0.0019666674,-0.01872665203877183,0.00062347511478113,0.0198801048,-0.017704278581749295,0.0007399197386383831,0.0187797546,-0.008130106593281687,0.0012731741652806763,0.0103597641,-0.004443753244008451,0.0009459647936523382,0.0061695101,31.4358943180631,116.830237301962,24.27264930032,90.8896292540378,15.53868643754439,90.3389988388074,18.988721404205,151.739229773632,15.217817231433052,54.9415593759761,19.2060463588746,58.0908963171919,57.15329606242066,166.442036817723,71.13048028204257,246.961491511503
Subj_02_Isokin_L_02kg_60bpm_EMG_data.csv,0,1.89990234375,1.89990234375,1.91015625,0,0,-0.002380222638636667,0.00046821786699210077,0.0045613293,-0.0006285013269133333,0.000597363455537016,0.0033293725,-0.0004715467075966667,0.0004494813494846944,0.0025517466,0.00060371379377,0.00040633083391426733,0.0020785332,-0.017339740684416665,0.0003860452517630092,0.0191039089,-0.015561961564066666,0.000377775454737453,0.0171566978,-0.005610834268986667,0.000558423710964885,0.0082580568,-0.0031401638102033333,0.0004734866530527462,0.0053240778,19.424663690348474,128.668062347599,19.22302454381,184.216873065288,15.000548432628536,117.409014392912,16.142475780937787,90.7670572117142,16.689482577770146,58.9720413279414,21.07105771504513,73.0366157536982,57.519108343114524,216.889238726515,73.79560868601017,330.53395404208
Subj_02_Isokin_L_02kg_80bpm_EMG_data.csv,0,1.9501953125,1.949951171875,1.960205078125,0,0,-0.0031507743192695035,0.0005586439937541517,0.0045733452,-0.0019097172434539005,0.0006149913593024347,0.0035079003,-0.0012541593114113476,0.0005458269307576689,0.002790642,4.4738000354609914e-05,0.00044522148824634313,0.0014945985,-0.01783899529087943,0.00041752922734322414,0.0195416454,-0.015840488874152483,0.00041456834373181014,0.0175941475,-0.006994533307663121,0.0005678113052736131,0.0093123438,-0.0036701962726666663,0.0004766348606769244,0.0060484889,23.993248995624654,155.950756664869,23.659511819722567,156.307250910118,19.664302686865067,121.285388853764,23.621095659093307,108.62971984382,23.142274525316093,84.0045957401989,28.819856923152802,109.164616117719,76.31745877304498,222.138528829489,94.46841243141324,308.918405955345
Subj_02_Isokin_L_02kg_St_EMG_data.csv,0,1.830078125,1.81982421875,1.830078125,0,0,-0.005854992700154321,0.0003183572593163703,0.0064919475,-0.00385619090841358,0.0002934152950903589,0.0046219826,-0.0041924606728148146,0.00047364304135009803,0.0048892023,-0.0013676024228086421,0.0004882855273758194,0.0021597864,-0.020560739292623455,0.00029787342463150827,0.0212224964,-0.019511289781530862,0.0002800094209443065,0.0199444778,-0.010765673545314814,0.0003222729112301554,0.0118017206,-0.006888676674333334,0.0005151057813450715,0.008002854,19.061022558698344,90.8130833711119,15.410800159574572,71.5085711985436,12.135903323642088,41.212149787232,13.643254952428853,47.2778663734601,6.1259165751783655,16.8135701034596,7.247611624339866,20.2236522008568,29.5006714173434,77.6099762377913,39.05918822333629,120.210410849772
Subj_02_Isokin_L_04kg_40bpm_EMG_data.csv,0,1.919921875,1.919921875,1.93017578125,0,0,-0.005864737304493617,0.0005391750845371292,0.0073448182,-0.002398416188093617,0.0005409971255440184,0.0040483475,-0.002460614842360284,0.0006430296812889564,0.0038349153,0.00012181642074042555,0.0004416556340639503,0.0015137673,-0.024437797764116313,0.0005486767345807494,0.0261094104,-0.022488863629821276,0.0004883891698686657,0.024104692,-0.010300793413401418,0.0005296486451452308,0.0121736536,-0.006760979216442554,0.0005819885266386685,0.0091486936,29.137858052943034,173.1985338324,28.20267835741364,186.233207533888,31.58583313174687,209.37691250671,26.411164758671298,119.373333319568,22.12721377810535,102.268542565265,27.339805072185747,107.714853183255,89.14492722515298,280.531309357343,120.05004885675834,406.379206965509
Subj_02_Isokin_L_04kg_60bpm_EMG_data.csv,0,1.93994140625,1.93994140625,1.9501953125,0,0,-0.005349469830534686,0.0005563316627575777,0.0068879132,-0.001875397059532995,0.0005970835673098979,0.0037110329,-0.002340869351015229,0.0006319239903543006,0.0044013979,0.00022873310127918784,0.0004389339925253929,0.001747799,-0.02393382195967513,0.0004909569691938456,0.0258421917,-0.022050473309729274,0.0005066967152633932,0.0237510689,-0.009374840026812185,0.0004816573182255076,0.0117313387,-0.006045805557922165,0.0005013067720218436,0.0089538582,27.861871422209745,193.401070380009,28.45398392979087,202.30665985285,25.67847932439865,193.68526107101,25.837312878942818,142.645259079543,20.640196938963506,98.9973455131798,24.21983353973466,103.390557547552,86.62750024269218,340.175294425915,107.41731406894642,404.958962619964
Subj_02_Isokin_L_04kg_80bpm_EMG_data.csv,0,1.949951171875,1.940185546875,1.9501953125,0,0,-0.005271095322686614,0.0004938931778734138,0.006714249,-0.0018689746276503937,0.0005129664666444372,0.003341961,-0.0025517393055149605,0.0005003515990049247,0.0040303231,0.00027580616501732285,0.0004662026616358803,0.0187093746,-0.024137371521656695,0.0004777762981186816,0.0257532131,-0.022184094533883467,0.0004925082587465582,0.0234981552,-0.009441494978988977,0.0004722792821515734,0.0113845831,-0.006360919170346457,0.0005331803948590724,0.0085899355,32.041164018283624,186.119315209235,27.921143212654556,187.552568439948,24.79644300137348,134.794680055367,31.789428120091866,2432.54961893076,21.08096615282951,85.6377098832653,26.653186961980893,110.658292037766,74.91973283351398,310.245874353276,95.29153428411931,340.403272648553
Subj_02_Isokin_L_04kg_St_EMG_data.csv,0,1.85986328125,1.849853515625,1.860107421875,0,0,-0.005423258491370717,0.000605233504404664,0.0070123677,-0.0021557018585420563,0.0006341824225695422,0.0036792757,-0.0025169660036510905,0.0006348103148630336,0.003917885,0.0003589111009719627,0.000433176601183519,0.0014187814,-0.024303463311694706,0.0006086377462697685,0.0256464966,-0.020965646702660438,0.0005063619668281195,0.0219883919,-0.01038634846811215,0.0004923780692036091,0.0121627813,-0.006867276856728971,0.0004300890009629734,0.0093609812,31.03409643068376,100.051386499464,22.032094723090427,95.5559357090395,16.328876642696986,93.9420065941285,19.230712650438875,67.4041938599522,9.721261259984125,28.6320445948876,11.744952920820216,32.3029530023523,66.36974903820408,216.749343147398,81.86478107498704,353.545676857603
Subj_02_Isokin_R_02kg_40bpm_EMG_data.csv,0,1.85986328125,1.849853515625,1.860107421875,0,0,-0.004375801838713451,0.001245206813231427,0.0067245485,-0.004458764023476608,0.0013327204573698817,0.0070549967,-0.005760992859874269,0.001194731922493158,0.0079994202,4.912343039766087e-05,0.0007204345266265563,0.0017655373,-0.011574327962687134,0.0003395497514162709,0.0125275617,-0.008313905706695907,0.00046698398839814726,0.0090170866,-0.006195302349973684,0.0006530169084618771,0.0079164505,-0.0025779616808567253,0.0006703927847862392,0.0043221475,65.21369493088935,479.012765268511,134.10592094482627,1017.17259279992,65.0780898117258,524.871073375523,40.944846192891646,268.341256563647,43.59768746574626,171.440667198735,35.99161572537646,138.603297361626,56.03670984464732,172.239584461846,58.85913320150833,182.929886611937
Subj_02_Isokin_R_02kg_60bpm_EMG_data.csv,0,1.900146484375,1.89990234375,1.91015625,0,0,-0.0004726518461189024,0.0011052417456441845,0.0025846483,0.00019984791198475612,0.0010051121993770035,0.0041582109,-0.0015219978215609755,0.001049893492151204,0.0032535554,0.0026880517836646344,0.0006434044730881521,0.0046008113,-0.010354311487134147,0.0007746395602715144,0.011771393,-0.006445264526844512,0.0009245435613883767,0.0080354698,-0.0036497025915640247,0.0006475009554363322,0.0052637104,0.00022193045768902444,0.0006809411263340868,0.0027557374,57.709153823962225,356.656651331277,50.859661506798744,287.576483124642,46.28650384834732,287.498718148859,39.61350392518089,154.489209176341,42.12808015182542,251.38691826637,34.00923317994577,114.488048663435,56.26221390312189,193.653364946208,58.69184549887872,174.39417982953
Subj_02_Isokin_R_02kg_80bpm_EMG_data.csv,0,1.85009765625,1.849853515625,1.860107421875,0,0,-0.0020599223576761904,0.0012595709963691807,0.0054485323,-0.0009568094922793651,0.0007508914726920583,0.003289032,-0.003397321471473016,0.0009706441120242477,0.0062072757,0.0019329757338285714,0.0007055642499575564,0.00324955,-0.009391914931466667,0.0008377113344009134,0.0111313825,-0.005362895698520634,0.0010337420394168628,0.0076334956,-0.004135576026717461,0.0006191336317818509,0.0058570863,-0.0005253937727301588,0.0006509054556320999,0.0024081231,81.0569999618413,408.428587112255,68.41696160699416,596.286783311561,54.458547717976415,285.151725840137,43.06142854039473,205.62074001515,56.435244876289055,192.724510708519,46.51842099988869,142.430810793129,77.01215042687772,277.381834184553,81.80821048251893,262.108890477387
Subj_02_Isokin_R_02kg_St_EMG_data.csv,0,1.830078125,1.829833984375,1.840087890625,0,0,-0.00825075744107971,0.0005004339049772339,0.0094840052,-0.007091381672739131,0.0007934795862397317,0.0085418709,-0.009202307416347826,0.0006356286896987994,0.0103503233,-0.00311471136081884,0.00039945827644926425,0.0038377764,-0.01175569050428261,0.0011825636613909576,0.013738919,-0.009505961654297103,0.0004993963719721844,0.0107208258,-0.008351514367869566,0.0002342890635222946,0.0094665531,-0.004783898973,0.00046691851851142144,0.0058948519,37.36629537804873,207.339671693017,39.72587572709489,200.366911227615,45.663552126558166,144.884426346722,36.1082373981488,113.913762841721,30.782957548582605,96.6371843324604,26.872892093197517,105.216842827614,51.87445520511663,155.774903176523,54.35886844777802,214.206539300909
Subj_02_Isokin_R_04kg_40bpm_EMG_data.csv,0,1.860107421875,1.85986328125,1.869873046875,0,0,0.003017756559670851,0.000683523395795033,0.0043144226,0.00310070473032636,0.0007691035580269574,0.0053143501,0.0006984464528117156,0.0006146040327982867,0.0025737763,0.005451480262516039,0.000385807894828691,0.0065671923,-0.008400701419244073,0.0005249129388783593,0.0097048767,-0.0041309520579525805,0.0005871042977863408,0.0052502635,-0.0023088513774728037,0.00042094389724165067,0.0040017129,0.001235831871191074,0.00039362903581500433,0.0035370828,60.750221601687144,308.726979736126,90.39553841454686,767.920390133147,57.181508541912294,295.922595513607,53.82795675034458,302.406522814732,63.76335750002634,218.950708341005,52.13706907551047,188.038206101953,82.23175532663801,276.389265573142,90.41963907574458,283.484551314236
Subj_02_Isokin_R_04kg_60bpm_EMG_data.csv,0,1.900146484375,1.89990234375,1.91015625,0,0,0.002137319685097701,0.0012334679131779348,0.0046025277,0.0030425416432557474,0.0009395390359775091,0.0078217508,0.0005735270221293103,0.0006232241101905928,0.0023394586,0.0048259917954109185,0.0005775085113789394,0.006188679,-0.008797993292229887,0.0010784898138620055,0.0105680469,-0.004866327125255747,0.0007844695022923836,0.006529713,-0.001971649565008621,0.0007188659057882147,0.0037470818,0.0012999422493218391,0.0007527543631415263,0.0035808564,73.09569824151086,530.732064724223,65.09135170727005,1018.17481125443,58.093860926261755,308.465748765433,57.67326969871165,323.239411060584,56.473434457116774,199.325481401961,46.60317454650374,156.430272506751,81.95266206785384,234.288759176314,90.16839864088682,300.633535061265
Subj_02_Isokin_R_04kg_80bpm_EMG_data.csv,0,1.940185546875,1.93994140625,1.9501953125,0,0,0.0025531710444158416,0.0009041998519740934,0.0042812349,0.003815073464432343,0.0013350958701377536,0.013947201,0.0011778864140957097,0.0005946895874208051,0.0029691698,0.00538225480040264,0.0004441761212758373,0.006778908,-0.007510489002475247,0.0006180556814195479,0.0095621115,-0.0036957829280066003,0.0006078153676420616,0.0051587108,-0.0014749152089537955,0.000514164209781411,0.0037299157,0.001801022406980198,0.000514477030346006,0.0045218468,87.80205506960284,562.193898267783,71.38150956740849,400.532665672699,71.96017874903096,324.351736990179,74.0870311793065,327.313313344504,69.7807509556404,282.812298461809,55.991134451379025,201.746445894654,89.5151855450577,354.897412032443,92.56344531160434,284.037978497346
Subj_02_Isokin_R_04kg_St_EMG_data.csv,0,1.849853515625,1.83984375,1.85009765625,0,0,-0.00010932004779439257,0.00037606253662503524,0.0009269715,0.001529199514361371,0.00023657456184354071,0.0021486282,-0.0008069961055451715,0.0004934030738570896,0.0186550152,0.004968639166380062,0.0002139149569402331,0.0057108882,-0.01069133583257321,0.0002998704675998208,0.0113565447,-0.005626605175968848,0.0003581605729734133,0.0061191563,-0.0032002630696884734,0.00027857418211974135,0.0043270113,0.0007023244759875389,0.0002857777984949036,0.0025494576,46.67304090959116,159.986864035383,35.50540822399427,130.501256801546,453.8958748180496,5724.54321179376,44.21478099058111,161.123849632043,27.892521104497202,93.985679932715,23.923631291952784,78.2877680013389,60.64710435487332,294.811279439849,51.45723142541508,153.465649968949
Subj_02_MMH_Bim_L_02kg_Trial_1_EMG_data.csv,0,1.889892578125,1.8798828125,1.89013671875,0,0,0.003286371421433106,0.002575929037145349,0.0060725217,0.0015860349749841271,0.0020363521261233856,0.0041293148,0.002327927037585034,0.002288117781017006,0.0049910545,0.003585059298385487,0.0029067555746559158,0.0073622707,-0.01388982256699093,0.0017533995932883827,0.0170808807,-0.008253363884743764,0.002350282622986804,0.0130165108,-0.0009287929174489796,0.002217926934969441,0.0058733942,-0.0012652809754172334,0.0015853669837670309,0.0044008256,56.95041862790037,388.393899458488,55.57195573741017,569.05466473008,43.724517715792494,359.936887219957,77.37147535396775,872.484004432353,31.117048799780402,157.918319042436,22.427747102104693,137.804967477154,46.85959822345652,157.561214423398,33.54806930100275,110.460051194953
Subj_02_MMH_Bim_L_02kg_Trial_2_EMG_data.csv,0,1.93017578125,1.929931640625,1.940185546875,0,0,-0.0037856030333197777,0.0005816364152982843,0.0051280977,-0.0021213809258779446,0.0006502694133781442,0.0040274621,-0.0034354537428965635,0.0006136702726755852,0.0051169395,-0.0021622209302756554,0.00052355207212902,0.0033685686,-0.01822584219985186,0.0006176581466685126,0.0197078716,-0.013743067295233391,0.00037406202320322134,0.0155542381,-0.006518683459395241,0.0006701895954816047,0.0088474276,-0.004922527517770936,0.00053863220909404,0.0064447406,44.86618967314419,287.481320595527,44.94490865528908,271.60448852295,37.51091131104443,304.548536145002,42.087284265924175,295.931642458603,26.547383976763197,124.399045403471,19.651690900481796,93.4673143745136,37.73286461303043,126.241057980281,28.077266927974886,93.4282209659038
Subj_02_MMH_Bim_L_02kg_Trial_3_EMG_data.csv,0,1.909912109375,1.89990234375,1.91015625,0,0,-0.00436179440554026,0.0006270894169870102,0.0067431452,-0.002855451974166234,0.000592838685173486,0.0049183848,-0.003167134320376623,0.0004803774823797688,0.0047990801,-0.0025837193179194806,0.000556224093830575,0.0039868355,-0.018845483725522076,0.0004917990537811684,0.0198423397,-0.014303301335322078,0.00022187561896999685,0.016125299,-0.007144911244979222,0.0006939091054924047,0.0098190308,-0.005804905788667533,0.0008808978923883462,0.0088711744,49.010242658220704,258.746440041467,51.09965898300944,277.407132174566,37.42590122760535,237.199660724892,41.41136174900358,239.455659298516,24.51403726556747,120.245403019666,19.183048641806813,104.692739902398,40.74654898889942,194.666798588274,28.47534880339091,107.424605024146
Subj_02_MMH_Bim_L_08kg_Trial_1_EMG_data.csv,0,1.869873046875,1.85986328125,1.8701171875,0,0,-0.005759984738103568,0.0011314259850098137,0.0093695642,-0.0037372386181426928,0.0018579680890825942,0.0096322065,-0.0031962744109597244,0.0016038779214383454,0.0077236178,-0.002960904760361335,0.0007518836304236256,0.0049115182,-0.020395555571021864,0.001530421120149632,0.0243736282,-0.015015452354046029,0.0018238513386851605,0.0194824226,-0.009190074516593786,0.002348050264075555,0.0163175594,-0.008359737466602991,0.001840488975305433,0.01363678,60.38276922480053,295.140893953038,64.44092639286488,320.24426288191,72.97242768477838,360.106922663441,80.43018751500604,371.185992365243,35.70881505905735,199.587765685362,25.91213153560308,165.972483900952,88.76733118539853,386.362298518961,61.96940911945907,233.137180487184
Subj_02_MMH_Bim_L_08kg_Trial_2_EMG_data.csv,0,1.919921875,1.909912109375,1.920166015625,0,0,-0.01095447372939726,0.0011899186568522576,0.013379002,-0.01128664172305936,0.0004173217002867119,0.0123930937,-0.0082711423726758,0.0008677028101924962,0.0103451731,-0.004928422105878234,0.0003874543144700849,0.0061291698,-0.028141824065908677,0.0017683113074403326,0.0317934044,-0.020379858895175035,0.0014427960033685386,0.0238440521,-0.018981886427890414,0.0006008438837905675,0.0212016106,-0.013443333258423135,0.0004632533654970691,0.0150535591,81.2935975633349,378.50713616565,75.80587815077129,337.254354852172,78.56200605004858,528.630663803361,82.870154014126,285.503930577704,37.251515099790865,186.344472533303,26.752649054605033,116.512692986405,79.83913170546435,311.017040655677,58.27427248385949,188.133437253586
Subj_02_MMH_Bim_L_08kg_Trial_3_EMG_data.csv,0,1.929931640625,1.929931640625,1.940185546875,0,0,-0.01120957940353867,0.0005315610122288621,0.013144684,-0.010029831228436908,0.0007009219061517703,0.0119044306,-0.007538013795682496,0.0006579219453765111,0.0096885683,-0.0038594772754871097,0.0005825804459473578,0.005795002,-0.028033070254944368,0.000891906755629977,0.029314328,-0.022504348299424694,0.0007507869085660787,0.0245678909,-0.016365188313986433,0.0007184117567927558,0.0188587196,-0.011734969643587518,0.0006387086237028043,0.0140979774,66.3684491709801,489.36056927356,70.5792974820211,587.14767194218,83.92530335331277,353.825797849882,91.804995148434,428.227270754392,29.18167911254936,137.611425254128,20.114650516970084,96.7425987845241,72.78267831836175,343.71645816886,66.03751245667682,204.025911042656
Subj_02_MMH_Bim_L_12kg_Trial_1_EMG_data.csv,0,1.909912109375,1.89990234375,1.91015625,0,0,-0.006735813841962265,0.0021783462659098886,0.0102759367,-0.005928278931393081,0.0024927055063515115,0.0103780748,-0.0033519711630943393,0.0017138368898226254,0.0063314443,-0.00021555563304402508,0.0010840307097145425,0.0026144029,-0.02263681950901258,0.0013047138766596833,0.0253397953,-0.01860623121471698,0.0010486336429658895,0.0209930427,-0.011433401467955975,0.003515793652195553,0.0197871216,-0.008862107241327046,0.002401099735890325,0.0144498833,110.43296584354273,539.710187981325,104.02078004325534,614.439331459809,124.51127634291346,482.181826339974,150.52187405571598,575.045753540839,44.93490579161239,211.223650716856,30.947133233654345,130.681747503054,159.42099492123467,607.430034059368,109.89128438124479,420.059428780636
Subj_02_MMH_Bim_L_12kg_Trial_2_EMG_data.csv,0,1.9599609375,1.949951171875,1.960205078125,0,0,-0.01177739619152025,0.0008989715289298762,0.0137220388,-0.011057549053127726,0.0006135292283733563,0.0127876289,-0.0073482702702461055,0.0008168026966652949,0.0094636921,-0.0032657253062492214,0.001020246107665587,0.005869675,-0.026770042946772585,0.001693425602332402,0.0300084129,-0.021647510420417446,0.00147528134559468,0.0246168151,-0.019480056694934578,0.001016224271022514,0.0237333309,-0.013200096633221184,0.00075850789252063,0.0161962509,86.67529240565587,324.221898629094,103.11932394813314,511.19270437671,124.0031923616879,391.639577971745,149.4999547421947,543.512932415874,43.92824259377179,188.766969794947,34.01928785491191,172.771418482972,120.8535409686629,391.74867139861,78.92099761198686,243.194632710719
Subj_02_MMH_Bim_L_12kg_Trial_3_EMG_data.csv,0,1.849853515625,1.83984375,1.85009765625,0,0,-0.006265587800287951,0.0027191517642723086,0.0114060408,-0.0054952015264287946,0.00291001659675539,0.0101892473,-0.0028144177093990612,0.0021271045026741604,0.0071150782,-0.0014967281241001565,0.0017317804532069436,0.0046391487,-0.014439833124964007,0.0040816217532036285,0.0215686802,-0.01019932775023161,0.0033236173033497703,0.0162860882,-0.008287219813752737,0.005196915125175358,0.0164053924,-0.006718283468031299,0.0037694276080444426,0.012368775,97.96774668502987,476.103867849131,92.83364605508459,554.30665126041,133.7115603227705,450.170817329597,151.66818768707677,491.257615551179,42.41993066931279,201.153199421585,30.16719806970014,164.717591427333,110.83704716734033,497.862176837061,98.32288632231266,339.031577271772
Subj_02_MMH_Bim_R_02kg_Trial_1_EMG_data.csv,0,1.949951171875,1.949951171875,1.9599609375,0,0,0.005234364075185454,0.002971892124575874,0.0090974811,0.00848297923877091,0.0029734100246544787,0.0122551927,0.004977435282305455,0.003020275884771971,0.0087395674,0.00900022904216,0.0012858322149745592,0.0110169416,-0.0061175354035418175,0.0032350761962102684,0.012023163,-0.001629377006870303,0.0022484329187438448,0.0052742958,0.004148778611047273,0.002596581062025031,0.0087152487,0.005573981860363637,0.0021638840312890612,0.0095984461,73.53501636828258,355.540838253609,67.11186456348513,320.478131121587,68.79421787653537,491.342723333546,49.95446824092734,321.904068790724,41.219658060632,252.503366490158,32.59256783602822,206.759318634128,26.217274483047895,152.536087824279,19.438634412156997,112.401088033263
Subj_02_MMH_Bim_R_02kg_Trial_2_EMG_data.csv,0,1.93994140625,1.929931640625,1.940185546875,0,0,0.0005798120194922117,0.0006041123071840173,0.0017872811,0.003823319910037384,0.0009324637033456439,0.0055692676,0.0009322404512211838,0.0007491820567236304,0.0025629045,0.0035925961618566977,0.001028249847062795,0.0055664065,-0.01536819464526168,0.0007773311878475745,0.0171895996,-0.006465957899218069,0.0005555693405791862,0.0079905512,-0.000596528355211838,0.0008093861605185706,0.0028827668,0.0019064481321183803,0.0006958249372148352,0.0036618235,62.384900063832305,354.890707179741,65.07034153142352,424.601387336458,61.631132341599496,282.483318717776,48.742564808223534,300.115235102193,37.91405365704747,243.375884456854,32.631098219669504,217.648321551199,24.290638824827216,121.950087264382,17.456667608100805,110.429444066626
Subj_02_MMH_Bim_R_02kg_Trial_3_EMG_data.csv,0,1.89013671875,1.889892578125,1.900146484375,0,0,-0.0009239027484971266,0.0006266298345329003,0.0029943467,0.0015331723251264366,0.0011182932282432026,0.0034286501,-0.0013221756409166668,0.0006322286570895829,0.0031571391,0.00206391498479023,0.0008713394019964756,0.0038706781,-0.015463859113827588,0.00036748343844143647,0.0167587288,-0.00798459473175,0.0004293255567378862,0.0091761593,-0.0019681561470402302,0.0008971432126646345,0.0044978145,0.00024821503493390796,0.0010833951288978913,0.0187311172,64.78425446432215,313.10958911349,64.54830899547723,418.466909204994,52.38225286906629,304.410157315005,58.43900988767084,531.647679182817,34.155070334006474,201.093110445752,26.561007684431136,149.612624894614,26.67887087554581,176.093341234611,19.133351003826053,1533.64846877004
Subj_02_MMH_Bim_R_08kg_Trial_1_EMG_data.csv,0,1.8701171875,1.869873046875,1.880126953125,0,0,-0.0025276811165006385,0.0010381174582818381,0.0054851533,1.424331912643673e-05,0.0011950264733487869,0.0033411027,-0.001584635607100894,0.0007926385395188373,0.0041376115,0.001580168851596424,0.0007859432127730059,0.0037608149,-0.014575818492620688,0.0004000325182017751,0.0161321647,-0.009287191983943807,0.0011983834394363624,0.0124362949,-0.003370203162776501,0.00108217253559213,0.006320572,-0.001103556551376756,0.0010265646538174765,0.0173764229,109.40372065895482,448.551128011738,84.8955019986297,462.745555301154,96.51297119927794,467.282500962297,85.19252318547393,560.767735886497,42.44613607386917,160.728264094859,41.05247987196291,164.476237480512,57.27525591718127,219.053549906919,43.319235900160756,1561.81667239158
Subj_02_MMH_Bim_R_08kg_Trial_2_EMG_data.csv,0,1.940185546875,1.93994140625,1.9501953125,0,0,-0.007074298137726027,0.0006405281411059191,0.0088110929,-0.0037256191610745815,0.0007239697203426256,0.0056859972,-0.0045445071771141555,0.0006589276946903314,0.006434727,0.0003149029825753424,0.0008790198843868544,0.0022845268,-0.017761124892882802,0.00042570043503718287,0.0190661438,-0.011337776106024355,0.00073094226919012,0.0133944517,-0.005815539803869102,0.000601693367609414,0.0076772692,-0.003169519881214612,0.0006197913283293952,0.0047804834,110.9441308658829,497.109023920952,106.1842180980347,380.778872131189,108.11109342421604,507.509404012591,95.7503415605909,386.795787166286,42.64502853616541,218.089081675294,35.98192364034027,181.487775043846,44.24854732904978,141.094449685001,37.19673617077701,131.05785330931
Subj_02_MMH_Bim_R_08kg_Trial_3_EMG_data.csv,0,1.929931640625,1.919921875,1.93017578125,0,0,-0.004827857443456259,0.0007565519636841389,0.0067251208,-0.0019960541760995964,0.0007905619393721288,0.0040389062,-0.0035224537704737547,0.0008889740912758675,0.0059400559,0.0012704827839730818,0.0007742642028876171,0.00323267,-0.018380930657671605,0.0006920377140404946,0.0203375816,-0.012594571043224763,0.0007199287119341378,0.0146158226,-0.005066578002309556,0.0007514175558442285,0.0071119312,-0.0020381780615881563,0.0007951221468203651,0.0041596415,86.84396773977606,553.791932451945,92.46788019237582,584.261834729905,96.23317978665341,759.421231210603,80.22725594093406,651.739064814131,39.438603819088435,172.726081083761,34.08134948667723,179.822443225365,52.812492217898274,181.252862134641,43.86346353242836,155.117579621691
Subj_02_MMH_Bim_R_12kg_Trial_1_EMG_data.csv,0,1.929931640625,1.929931640625,1.940185546875,0,0,-0.0010412202998947367,0.002173930933330519,0.0057048798,0.0006432439436714511,0.00214370492937084,0.0047055245,0.0006999594589377989,0.001822330408841605,0.0044540409,0.003512760725987241,0.0017048880630231487,0.0068716053,-0.015347812987259967,0.0004696501807605213,0.0166766178,-0.010597825440992028,0.0007903340771394272,0.0120912557,-0.0033033907871323764,0.001667764465029558,0.0066410066,-0.0004886937609154705,0.001682230539422983,0.0046960833,119.68655028429238,633.975291754058,97.83821730285064,727.369307694083,222.5747800203393,775.203300166893,150.72624759970572,586.705186498851,55.016899692775645,233.456377451834,49.43324129233307,198.267017164881,83.81119999708838,290.684299113065,59.15869685561738,184.131348031523
Subj_02_MMH_Bim_R_12kg_Trial_2_EMG_data.csv,0,1.929931640625,1.919921875,1.93017578125,0,0,-0.005905032139128205,0.0006335005197457357,0.0073691369,-0.0030185210532669687,0.0006008430875990125,0.0046468736,-0.0018789435349622925,0.000684583416816651,0.0036975862,0.001539080928361991,0.0008321442195770256,0.0039012909,-0.01444542160468175,0.0006520440512247168,0.0158423427,-0.010346342048983409,0.0007924945082843151,0.0118406303,-0.005487695505656109,0.0006518181910110445,0.0073782923,-0.0018802244361900455,0.0007326953612571413,0.0037176134,143.11565038712268,447.025292000736,103.62758493699049,331.932882215752,217.74620990709457,807.31134463564,166.4632364310618,676.214658789756,59.190301568263294,226.443744401028,54.686634754672674,195.904338785898,75.89971966362748,266.425258516581,56.4150911585041,202.430642809683
Subj_02_MMH_Bim_R_12kg_Trial_3_EMG_data.csv,0,1.830078125,1.81982421875,1.830078125,0,0,-0.002094913100718447,0.0025207623835087067,0.0062622074,-0.000255120562935275,0.0021020512047626215,0.0040389062,-8.93630634563107e-05,0.001780233520398422,0.003584862,0.0029282895522233007,0.0006639803056183799,0.0049263956,-0.00846514137280906,0.0016372244772326426,0.0118045816,-0.0038789524311100324,0.0021635719481734443,0.0086731911,-0.0020965767743624597,0.0021492100023486724,0.005607605,0.0014854596568025888,0.0015824427545241785,0.0059600831,110.96754204878624,551.317780068395,85.78466592473183,431.702635403494,163.57652206659355,669.102425021906,118.82875290189428,466.362750579197,49.554653562257364,167.490548223696,42.88581454589266,188.571659474426,76.60222714737776,248.435275304789,57.25076324636723,165.895816148017
Subj_02_MMH_One_L_02kg_Trial_1_EMG_data.csv,0,1.83984375,1.829833984375,1.840087890625,0,0,-0.011164558808728058,0.0007132351366340676,0.0129627232,-0.009655119645315107,0.0008413785274700382,0.0118108755,-0.009086376953444605,0.0005637402264885491,0.0103737833,-0.00482705911131223,0.0005984540956523978,0.0060341838,-0.023738596805050357,0.0005907916505834122,0.0247601513,-0.021934331442719425,0.0004752286264408045,0.0230581295,-0.01613358191444029,0.0008108775462848757,0.0177111626,-0.012093691344543883,0.001143760146456986,0.014154912,32.196147285663734,204.082177366474,32.10501773368894,189.844785987717,18.762458442310507,115.84522940078,25.156465626410686,144.313968568855,9.529738122080184,51.9255959462859,11.767846346270133,70.2419877417417,50.230524300307295,176.314095804902,49.07633160194618,167.858554838816
Subj_02_MMH_One_L_02kg_Trial_2_EMG_data.csv,0,1.89013671875,1.889892578125,1.900146484375,0,0,-0.010637462073335142,0.000924935671992014,0.0127721792,-0.008852647449020354,0.0011795633628963727,0.0112669952,-0.009247144747327001,0.0006104317503339514,0.0108495718,-0.005287427075940298,0.000656051126069725,0.0069977762,-0.023232581721658072,0.0007536101798248355,0.024827959,-0.02196216288565536,0.0006074728959809912,0.0233442318,-0.016558985184578018,0.0008049615166394814,0.0190192237,-0.01228140893521031,0.0009236960707699642,0.0146859176,30.79998021857173,187.533342567763,33.06073185388146,233.219113966689,15.574501184331043,132.597557668087,21.18724880377248,139.446608890832,9.260623168054803,61.8358474148697,11.04216074321974,66.074041002226,48.81827026332611,246.403305053652,48.43444348723522,185.684065111049
Subj_02_MMH_One_L_02kg_Trial_3_EMG_data.csv,0,1.880126953125,1.8798828125,1.89013671875,0,0,-0.01015172532922933,0.0012338882535530519,0.0135149006,-0.00867703047626521,0.0014573242647803874,0.0126288421,-0.010323066933195008,0.0007195077980287794,0.0122414595,-0.006638006270836193,0.0006538772247887956,0.008184243,-0.023526051327862712,0.00087710962926066,0.0259826668,-0.022566502782820592,0.0006281029618318622,0.0243730564,-0.01727414139345398,0.0007695899557404345,0.0194623955,-0.012452694602318253,0.0008571481822164909,0.0145923616,30.523803056625646,192.738949899256,27.710495629724864,310.459577305336,14.564735373603899,135.654210483255,18.30448683800133,110.322396380602,12.240572459399413,79.3109024575958,13.387267198822144,90.2743006800192,50.42301593944639,159.750023847574,43.33993657042606,140.209739624133
Subj_02_MMH_One_L_04kg_Trial_1_EMG_data.csv,0,1.909912109375,1.89990234375,1.91015625,0,0,-0.007858181779737758,0.0015828511253900698,0.0106375702,-0.00593563051364613,0.0017136656630719707,0.0089003565,-0.009722881772394944,0.0010803999771859777,0.0116563803,-0.006492935150638231,0.0008851526003309016,0.0083713531,-0.021157137236900474,0.0011654316173661723,0.0235393532,-0.021974540531102687,0.001019618150793035,0.0239853878,-0.016316933464559244,0.0011466690821820957,0.019589711,-0.010188250084938387,0.0015462721925465967,0.0131011968,42.89069685711265,211.237686543635,34.22743708717732,248.534750912733,21.925178699728473,206.429855999944,26.14524047424151,122.141465038492,14.11752106845663,105.630855706822,16.063015181570215,139.465095750839,98.7122076219143,375.276026827548,80.21845390136386,413.611550709939
Subj_02_MMH_One_L_04kg_Trial_2_EMG_data.csv,0,1.89990234375,1.889892578125,1.900146484375,0,0,-0.008255706555478262,0.0015463483405763903,0.011800576,-0.005591631695938808,0.001663201206830341,0.0091898926,-0.009689165252679549,0.001182809393149359,0.0125232702,-0.006971208328334944,0.000741700573431825,0.0089138038,-0.020672431817761676,0.0011293630303968307,0.0226610191,-0.02118191485221578,0.0010687779967801902,0.0231104866,-0.01586287905694686,0.0021876401250363188,0.0192106254,-0.009866530845874397,0.0029761835127468635,0.0128047951,35.96215617186482,231.230271664106,42.509842301356706,365.137423492258,23.759631841640342,144.347554311296,23.144686002144663,128.542914517488,14.310441310972463,122.252103177094,16.773590775981308,131.388543943296,112.14330672040357,851.704635750267,117.63121614761145,1023.68768492527
Subj_02_MMH_One_L_04kg_Trial_3_EMG_data.csv,0,1.929931640625,1.929931640625,1.940185546875,0,0,-0.007702259539285921,0.0011955477395099556,0.0112106325,-0.005033737977146589,0.001299599451648749,0.00843916,-0.00984446426121916,0.0009394387946877286,0.0121341711,-0.0069428476072075475,0.0007898184423310349,0.0090047838,-0.01996106936159071,0.0012721745681533439,0.0221709255,-0.020936408782438316,0.0011803673883240533,0.0228798874,-0.016120792721373005,0.0009779801336978233,0.0187162403,-0.010383780425216257,0.0012798062072822034,0.0129939085,28.83213835426681,149.572938525065,26.003945638357113,153.421056755335,20.244841880679868,91.8911224684677,21.41353785735265,103.526941327307,14.95271383010204,102.394140200441,16.599432428628123,98.6194642536772,100.21671080752631,466.841474689869,77.52353148828135,398.837354966102
Subj_02_MMH_One_R_02kg_Trial_1_EMG_data.csv,0,1.83984375,1.829833984375,1.840087890625,0,0,0.0002836204517309942,0.0014509295985645602,0.0040658,0.0012039349762865497,0.0011100566316193724,0.0032658579,0.002107183006391813,0.001241612421177789,0.004185963,0.006374055100266082,0.0011398983858279205,0.0085764891,-0.011042058327777778,0.00064465570524488,0.0129773142,-0.007438040812508771,0.0008782526100996477,0.0102098472,-0.002263615080561404,0.0014918133523361026,0.004935551,0.0028470581672046785,0.0018289876038733567,0.0089489939,102.40535240740834,531.375333825229,99.66572986506056,547.530389724533,90.12330637084749,465.426243520187,70.40335571669318,370.149703335226,68.97565071449114,355.04987504246,59.914582230135316,277.877786659343,49.39845541129076,295.290859369889,48.735812084636024,354.0623033576
Subj_02_MMH_One_R_02kg_Trial_2_EMG_data.csv,0,1.900146484375,1.89990234375,1.91015625,0,0,-0.004032777457155607,0.0010676849909149876,0.0062873843,-0.0018455266574992192,0.0006529128334597974,0.0032698633,-0.0018993779957918694,0.0007688351440239722,0.0039250376,0.003888838080579232,0.0007910702357103574,0.0052894596,-0.011367261970717123,0.0007771768416195738,0.0127015123,-0.008164660644281315,0.0009042052157886549,0.0098084453,-0.003835618036155116,0.001273575054906929,0.006136036,0.0011502778658797805,0.0017621730483385698,0.0104802139,136.84566462892045,718.396944238919,166.52865670205227,917.213718726333,100.78217701629755,517.072164300275,80.26493069316415,539.272780203804,31.204815190956833,144.113701353076,27.54653314808328,124.698302703994,45.37226875613463,154.912037355116,28.45624041146137,137.731837952024
Subj_02_MMH_One_R_02kg_Trial_3_EMG_data.csv,0,1.85009765625,1.849853515625,1.860107421875,0,0,-0.004722540351880259,0.0008073679334494736,0.0066681863,-0.0025555620192588995,0.0006247397330594856,0.0040975572,-0.0027554995421715214,0.0006124475295329339,0.0042603496,0.002721835703537217,0.0005704074990775707,0.004237175,-0.011320538296453074,0.0005872016446679049,0.0125510218,-0.007889534208152102,0.0007296166505991852,0.0093629844,-0.005105473310912621,0.0007539841437212336,0.0067780497,-0.00011824633381553398,0.0009482053141285419,0.0052554132,116.05085541017668,711.024524625826,98.72228705969093,502.364576567091,98.87148511869947,469.089193497885,65.54695070987479,330.169066960593,34.73745815099678,304.052607750884,30.015267630312643,246.303127268193,42.91105112747899,199.053394751993,30.25586076179216,150.338910103942
Subj_02_MMH_One_R_04kg_Trial_1_EMG_data.csv,0,1.889892578125,1.8798828125,1.89013671875,0,0,-0.005233091665550388,0.0011822627612492237,0.0078005795,-0.002681687254592248,0.0009166575046387562,0.0049884799,-0.0048986315106325585,0.0006015812584840793,0.006600094,0.00010937464074728683,0.00040868567506487525,0.0014528275,-0.012383971831708526,0.0004774856105693972,0.0136585245,-0.010335300228043411,0.00045357566785774817,0.0114595415,-0.006708453873919379,0.0006361879214932777,0.0088963509,-0.0023853266937860465,0.000806380794966828,0.0042148591,110.08642901944678,789.483321884943,102.02973835252196,666.732890385921,85.87840654361553,409.697511472176,73.76478337336529,316.695587938922,50.532254938746384,232.418438501809,42.76280658272352,198.643208061049,75.21881148212806,312.546202529911,61.998186949854606,273.137663844794
Subj_02_MMH_One_R_04kg_Trial_2_EMG_data.csv,0,1.919921875,1.919921875,1.93017578125,0,0,-0.00497694830205613,0.0014421496318255031,0.0081779482,-0.0025507958492525847,0.001104377843561801,0.0048256875,-0.005265183378942393,0.0006912871471626713,0.006913376,-0.0007900603057607089,0.0004027963584043631,0.0016659737,-0.012479775070974888,0.0003753379019984943,0.013370133,-0.010687421902579026,0.0007252824177568991,0.0121590616,-0.006923204478912851,0.0007980805818541022,0.0085275657,-0.002328625784939439,0.0012818061464406841,0.005153561,141.37684192645875,939.694629661493,121.69408222012011,868.925321926298,78.53942790151432,474.569553310232,55.881340945820824,239.402795374276,43.11104435137758,191.161492480552,35.77279577474974,156.693602060438,49.65743629551631,166.095430940865,44.19704284267943,313.110200186015
Subj_02_MMH_One_R_04kg_Trial_3_EMG_data.csv,0,1.949951171875,1.93994140625,1.9501953125,0,0,-0.004316559136652308,0.0014614222201309805,0.0078374865,-0.0019135932254553847,0.0014868040728789663,0.0049572946,-0.005005967833415385,0.00101135774594663,0.0073124887,-0.0017145698823292307,0.0006152902913181535,0.0032592774,-0.013305200874821538,0.0007380580259636357,0.0144802099,-0.010853823805547693,0.000798191345955187,0.012067223,-0.007237176119873847,0.0012741818825379287,0.0089864731,-0.0022487949541538464,0.0022484643434688575,0.0112378122,132.46378253545478,476.562463590959,97.22842775024299,547.501994160828,107.18104288164243,461.557610368894,76.40733969933964,301.880672858186,52.07719266990612,282.554733930568,41.357794332882115,199.890475435792,66.38522716662844,212.649897559465,45.28754549833187,144.633903094329
Subj_02_MVC_All_L_EMG_data.csv,0,1.97998046875,1.969970703125,1.980224609375,0,0,-0.004778211940046448,0.0007578409965935298,0.0066149714,-0.0013823425001120218,0.0008164785388229451,0.0035688402,-0.0027927926513688526,0.0009313040359604857,0.0048657418,0.0006195123008060109,0.0006698888799885561,0.0038815499,-0.024014151562300547,0.00048225158160817715,0.0269837398,-0.021899468985887977,0.0007073211058596711,0.0240540523,-0.008838799273338797,0.0010999546728246515,0.0111645702,-0.005699294912773223,0.0011934923906288626,0.0079562189,,,,,,,,,,,,,,,,
Subj_02_MVC_All_R_EMG_data.csv,0,1.989990234375,1.97998046875,1.990234375,0,0,-0.0005124570186027779,0.0008819895529247331,0.0039462093,0.004390187903061111,0.0007950501729380019,0.0055752755,0.0012129320229055558,0.0008965192055683756,0.0025411607,0.007417907791825,0.0007289780268458168,0.008556176,-0.009826854454441666,0.00042345907354000216,0.0117047317,-0.005805176531086111,0.0006174413568449744,0.0084960945,-0.0010426181595138888,0.000651124301455338,0.0042640688,0.0016754977320472223,0.0006268367337559102,0.0047990801,,,,,,,,,,,,,,,,
Subj_03_Isokin_L_02kg_40bpm_EMG_data.csv,0,1.8798828125,1.8701171875,1.880126953125,0,0,0.000909971108193989,0.00031919280002175397,0.0019701004,0.0020017887045819674,0.00029150387885328895,0.002785492,0.00261921194545082,0.0005789720365783675,0.0042500496,0.002833138578147541,0.0007299841175302739,0.00543623,-0.009531165728663934,0.00034408806184819,0.0104298592,-0.010869437141483607,0.0008041290962981589,0.012406827,-0.002157392644994536,0.0005509346236382681,0.0042331698,-0.0013178669837267758,0.00038981919075497764,0.0027600289,27.020511641123683,125.565857465997,24.839479540842895,202.423226444736,53.056829390450545,236.475578718135,69.74313944345954,360.998954594162,50.902513640513476,168.8712401178,39.6369801062875,128.034061610971,78.72389228664065,294.7574035607,82.04989086758887,305.755137170067
Subj_03_Isokin_L_02kg_60bpm_EMG_data.csv,0,1.8701171875,1.869873046875,1.880126953125,0,0,0.0016959226879918257,0.0011965165059227704,0.0044054035,0.0027987169109618525,0.0010690114899197043,0.0051092152,0.004307417773152589,0.0010642806962134943,0.006898785,0.004786230707569482,0.0014125803059727882,0.0090482719,-0.010260148554318801,0.0009446764808815879,0.0115588196,-0.00935168451979019,0.0007956456070934183,0.0104407314,-0.001172845849558583,0.0012711193300790555,0.0048156739,-0.00028636732378474114,0.0011593477215294664,0.003464699,40.12818075335794,226.948186992167,35.02791218246724,180.468470663976,69.65838450748849,360.089401471939,88.2421449636409,551.4853797231,61.390208828311266,238.026681922014,46.251491988115596,158.290209948437,101.83815597135208,363.774094286771,108.51751566237155,410.387185900844
Subj_03_Isokin_L_02kg_80bpm_EMG_data.csv,0,1.869873046875,1.85986328125,1.8701171875,0,0,0.0011847616417881618,0.0010734257460738095,0.0033665658,0.0009339817838099689,0.0014077632318681423,0.0035119059,0.0021416531575202493,0.0020941923247639153,0.0185886398,0.00620194144434268,0.0017160085733156044,0.0094974525,-0.012878087152327104,0.0009728179466429184,0.0144186979,-0.012900573916676011,0.0012252908869859853,0.0146561628,-0.0017503647071931462,0.0006538648268537979,0.0052657127,-0.0005078520690249221,0.0008289700746927163,0.0033050538,54.96690030649003,197.225108960263,64.55591294063663,215.352717432862,70.58276932795769,4029.55992201792,90.16376602677595,307.886662556412,57.08242208125727,186.033737367236,43.46401729528829,143.712893735609,98.07757917503913,314.215494452361,103.88315847178416,338.335156524443
Subj_03_Isokin_L_02kg_St_EMG_data.csv,0,1.860107421875,1.85986328125,1.8701171875,0,0,0.002197318750436137,0.0003156367617876238,0.0030112269,0.0035477122288286606,0.0002132205727881976,0.0041092876,0.005885136672267913,0.000629279183911682,0.0070735933,0.005954028745426792,0.0007718210304395411,0.0074950219,-0.014037203675632397,0.0006937569187866746,0.0150601389,-0.014419301707663552,0.001039699875975822,0.0157731064,-0.0016261620029595016,0.0006758483294110841,0.0035436631,-0.0004863169864112149,0.0004725741841102298,0.0019165993,24.205503747625322,134.496254294312,34.734049150669655,196.814763666034,41.3791929015641,145.273252326253,48.01253807148949,139.877799123755,37.24462426681719,112.579646087004,29.288516753533717,91.5117314664345,69.38743134156618,201.376233392809,63.53466112719144,179.259434927926
Subj_03_Isokin_L_04kg_40bpm_EMG_data.csv,0,1.849853515625,1.83984375,1.85009765625,0,0,0.002163141872320802,0.00042963818986116426,0.0038969994,0.002798490789746867,0.0003846105630171231,0.0040148739,0.005931438847997493,0.0009672204807531787,0.0077116014,0.00550278822418797,0.001041032493381577,0.0092056282,-0.01751727773658897,0.001564477289928706,0.0203166977,-0.017182556209907267,0.001850572256934856,0.0202434547,-0.0027720614045313283,0.0012104756534705918,0.0051967623,-0.0008976476376015037,0.0008495172450157805,0.0027199746,47.15847964520617,197.001737761319,45.257879165956844,204.43279083139,93.88238402758513,598.078468529313,105.0560576708812,426.311136154916,63.23678726104571,273.935173753229,48.80514117867315,239.481759181866,110.36501685332594,400.996313057694,102.39208979895275,317.045159118757
Subj_03_Isokin_L_04kg_60bpm_EMG_data.csv,0,1.849853515625,1.83984375,1.85009765625,0,0,0.0025461730072191234,0.001063846967897975,0.0052588466,0.0032834244054687914,0.0009747787805284133,0.0058728219,0.004927942211219123,0.0007521245485215376,0.0075393678,0.004468637806464808,0.0014515453326075806,0.009584141,-0.012378376687035855,0.0016200599770230105,0.015133095,-0.012502602671171316,0.0015767080821441465,0.0152043346,-0.0014902768206480742,0.001499839957454089,0.004980755,0.00032487633445683927,0.0014290599550034692,0.004074669,71.57014133893806,244.485558513135,60.23211486407938,217.224078354517,114.34527421409675,443.736655689892,135.2387929484835,767.697809404397,84.4061917460514,303.65513296167,65.75489879861598,239.496361375461,140.50863541899605,472.494266687357,137.62496034807452,455.180987492134
Subj_03_Isokin_L_04kg_80bpm_EMG_data.csv,0,1.840087890625,1.83984375,1.85009765625,0,0,0.0024290639847411167,0.0006051688952518654,0.0037279131,0.0032043623583824024,0.0005817638204110071,0.0048311236,0.004827545371461929,0.0013058592799168114,0.0080769546,0.004864165637241963,0.0011732360055157303,0.0085927965,-0.011300192359790186,0.000787488301573152,0.0129678734,-0.010849714242592217,0.0006575308760300182,0.0121896751,-0.0012975793880507615,0.0009583329975529842,0.0049950602,0.0003217983456582064,0.0007842405581555177,0.0186953545,72.86490609709927,315.912073322355,64.57032801193877,255.387435282534,119.35150390118037,419.529946322816,140.67686145640155,665.84713109307,105.85839633038505,328.6718339346,80.83040123571968,248.172284723219,173.13211743372392,483.900686449088,179.99965608009273,2178.24334004856
Subj_03_Isokin_L_04kg_St_EMG_data.csv,0,1.840087890625,1.83984375,1.85009765625,0,0,-0.004914883255683848,0.001783669545772383,0.0074761393,-0.005796811457656357,0.0014600116225511235,0.0078237541,0.0021647221171477663,0.001652022678336702,0.0059346203,0.0041840360953676985,0.001572226195949362,0.0076606753,-0.023711090137209623,0.0009439062265967421,0.0248883255,-0.022886748502927837,0.0016718163952591215,0.0248534214,-0.008177145724831615,0.0020117522883733264,0.0110389711,-0.007328225485883162,0.0017916296144394536,0.0098759653,60.32464651167409,181.528563698536,61.237543874352326,191.905682221622,96.70448265495538,453.827674822743,120.38589430187818,410.718813521019,65.11831630677892,213.641540357495,50.50206000309359,167.592666325153,107.5420916794301,345.110225550811,118.80918484564059,432.417493515861
Subj_03_Isokin_R_02kg_40bpm_EMG_data.csv,0,1.7900390625,1.789794921875,1.800048828125,0,0,-0.006725775166196548,0.0003884196972508374,0.0077336314,-0.007494708880573704,0.0003199973047627741,0.0086050993,-0.007661924480539176,0.0009368223236111982,0.0096264845,-0.001771637509264276,0.0006084311094532797,0.0031868936,-0.02338898438477822,0.000532662666824362,0.0252021793,-0.021483470954432933,0.0006006088075137547,0.0234686863,-0.007763125623184596,0.0005456682421886503,0.009815312,-0.008382602997606906,0.0007968067825421953,0.0112369545,38.13197756240145,191.164070675937,31.490690108246753,141.480236135144,57.66611258181581,272.5670201258,62.7068173308441,366.638054225859,76.01599213194424,323.440219910533,83.86282966232963,351.342671272182,99.79468613351825,427.312951105076,112.318289415448,490.639773206365
Subj_03_Isokin_R_02kg_60bpm_EMG_data.csv,0,1.85009765625,1.83984375,1.85009765625,0,0,-0.012097346042616518,0.0010799616037815997,0.014081669,-0.01288207347939528,0.001362935921746968,0.0149571421,-0.011213193814908554,0.000790267133803699,0.0135231977,-0.005447658411519174,0.0005221142319015405,0.0074300771,-0.026846641106286134,0.0010927814666225055,0.0289309509,-0.025707619449914457,0.001050506249071201,0.0275198948,-0.00839139758735693,0.00032003999265927687,0.0105877882,-0.009793390207415929,0.0021148023428079884,0.0131452568,55.123817468368095,179.81464226745,45.147414672883045,196.296806963292,74.53585225756109,341.035569843767,71.66580761175668,252.847927940215,81.0207239557065,258.477166059325,85.86743831482106,275.1065529484,112.35063986236551,350.653672757943,105.72698473764586,306.272209415326
Subj_03_Isokin_R_02kg_80bpm_EMG_data.csv,0,1.800048828125,1.7998046875,1.81005859375,0,0,-0.015762206679964745,0.003856415707086853,0.0213995948,-0.017574727160115385,0.0037282395513276692,0.0230569839,-0.016648250284714748,0.0028961888370213538,0.0215294845,-0.010064024600291667,0.0036713539738676784,0.015981961,-0.030790478811852567,0.0025778444066374357,0.0348100662,-0.02915786216886859,0.002411954116621999,0.0327884704,-0.01418010705284936,0.002407764983279188,0.0188804641,-0.015388734810259616,0.0040587264820253965,0.0216733944,51.962287384326295,337.221813363193,44.55262306211121,326.529938484423,74.76553935830272,389.319670876821,82.14524914908127,467.530464139293,99.86598284579348,359.203983910763,111.46630596026458,384.189240092715,136.50574211632923,461.993594599223,144.7497925857359,585.778693752178
Subj_03_Isokin_R_02kg_St_EMG_data.csv,0,1.679931640625,1.669921875,1.68017578125,0,0,-0.009463108147769697,0.0011266334899045177,0.0111176493,-0.010075374114618181,0.0009969113838870336,0.0118895536,-0.007065531305969697,0.001164781788901717,0.0094911577,-0.003049620579515152,0.0009552640924228862,0.0052096369,-0.028560178814266663,0.0012494936600198113,0.0299909599,-0.0278207855302,0.0009821309577665775,0.028956987,-0.010414140028315151,0.0008792129801980994,0.0121241575,-0.010256564197393939,0.002285561897024467,0.0131378183,58.66050052057638,182.561614028232,74.01002247448587,282.621223886868,98.56535926845325,624.937689252736,72.51065009183115,466.562519201512,61.32161616914461,226.349565244773,66.85573098415573,234.244124184772,87.26692189474097,247.373400868343,86.73203008218563,265.590604392483
Subj_03_Isokin_R_04kg_40bpm_EMG_data.csv,0,1.840087890625,1.829833984375,1.840087890625,0,0,-0.007427667194528571,0.00036181721911974357,0.0083001144,-0.007744219466640476,0.0002938252943901294,0.0084663397,-0.007696709493188096,0.0004121948886308744,0.0094239237,-0.005461539198195238,0.000596297969495513,0.0070664408,-0.01844721286469762,0.0021922272248425245,0.0229030624,-0.017724622259114284,0.0017231365961673517,0.0215861332,-0.007970707741861904,0.0004411468622533818,0.0100467689,-0.006486641152257144,0.0009200997383086104,0.0091269501,71.30188960313617,224.000140020647,55.35891969976952,180.641193212378,122.58285747742079,633.952186836488,124.40579466572878,394.656714125336,97.80482985620993,322.078022169738,104.09145845481233,326.323551799514,169.50156128007916,578.149698822387,152.14313019243727,471.350836811506
Subj_03_Isokin_R_04kg_60bpm_EMG_data.csv,0,1.840087890625,1.829833984375,1.840087890625,0,0,-0.00705726843912,0.0006608304062237457,0.008342457,-0.008853283760432,0.0009247097653413545,0.0104144104,-0.008614530939154666,0.0009832083561362652,0.0126588829,-0.003266798920874667,0.0009203195859922297,0.0058659557,-0.022493516022063998,0.0011632479741903378,0.0249575619,-0.019930139929008002,0.0011094730333580949,0.0232804306,-0.009431638015370666,0.0006158218694245862,0.0114366533,-0.009716162502016,0.0016455030127769043,0.0129801752,90.70448118963301,311.751454330938,73.34904585053046,264.380385331602,125.42405184905786,579.122625029419,131.4710284049642,441.158454718244,92.38184808350908,382.587934999667,95.68325033530698,339.53219208335,165.52738253830515,532.782955385743,151.45168118920847,481.08209960743
Subj_03_Isokin_R_04kg_80bpm_EMG_data.csv,0,1.869873046875,1.85986328125,1.8701171875,0,0,-0.011078774579157276,0.0030256129037844856,0.0220622066,-0.012724117205671362,0.0029386403210788486,0.0237367637,-0.013865186239377934,0.004269918708285474,0.026371194,-0.006069779232657276,0.0038713048663128777,0.0190569889,-0.026774754163523474,0.001519251692159069,0.0326388367,-0.025383096635652587,0.0016838945717320506,0.0314380676,-0.011323070297295774,0.0020578192152587776,0.0185414329,-0.01187376048520188,0.002656814511078224,0.0213466659,124.265832309205,485.443079301197,97.66875357196311,382.963020378644,139.46639628109352,590.899216066807,152.29781106909138,491.67049451955,104.7386303985383,496.464723372755,118.31218865266922,397.235292196402,200.00227925677535,699.471066740693,190.16962448037037,2470.34372959298
Subj_03_Isokin_R_04kg_St_EMG_data.csv,0,1.81005859375,1.809814453125,1.820068359375,0,0,-0.015679368527907103,0.0012257046512795383,0.0189331062,-0.01684047009990164,0.0012762475445438728,0.0201948173,-0.011372649017797814,0.0015150549784531703,0.0163496025,-0.00760106225262295,0.0009980823693776176,0.0117725376,-0.031033988978060114,0.0011926540757397084,0.0340587646,-0.028615403728306007,0.0010781721664010623,0.0312177669,-0.014733850828076501,0.0008891325326081879,0.0187857635,-0.016258322784704918,0.0020302527177206127,0.020573331,73.000175538229,268.614827304275,72.13105330889776,241.359696691368,96.91345103443894,436.771507834355,87.7215963331543,293.435565369535,80.05312756554636,301.327235225757,89.54613757839915,287.590104580396,122.09869163727699,335.211144027336,111.35522070448431,339.852397480963
Subj_03_MMH_Bim_L_02kg_Trial_1_EMG_data.csv,0,1.8701171875,1.869873046875,1.880126953125,0,0,0.002119580850079096,0.00029733754946776773,0.0030627253,0.0020603839412919023,0.00034408173852977633,0.0032197954,0.004228862746691149,0.0006917973488941712,0.0062853815,0.00384295372152919,0.0007823882349954208,0.0068976404,-0.008748960382258003,0.0012270079787507137,0.0109717371,-0.008868853518284368,0.0016123723845870724,0.0118635185,-4.6038942363465164e-05,0.0005758992604881392,0.0017420769,-0.000423339533314501,0.0005061544682186767,0.0016222001,52.05333403699446,345.575606826031,67.07190130571631,292.593863679655,37.88289424028587,139.155677667207,32.755168684820234,121.077843489639,40.33944563790593,185.484833651015,45.835547221533716,229.672474371304,55.74650437861115,237.967745531214,39.345198582005544,179.786486889039
Subj_03_MMH_Bim_L_02kg_Trial_2_EMG_data.csv,0,1.929931640625,1.919921875,1.93017578125,0,0,0.004281437594019126,0.0011011399718792528,0.0077030184,0.004499847311278689,0.0010823557221940493,0.0079490663,0.005626992485464481,0.0010599291710327407,0.0089595802,0.005740945372284152,0.001192926450670698,0.0094797136,-0.006278273764614754,0.00042443191084249796,0.0070441249,-0.005455744977513661,0.0004577601818731819,0.0067093852,0.0016558641157896174,0.0006267662489762335,0.0041808132,0.0017833638736803278,0.0008352567853627977,0.0045613293,47.53377219977257,224.480316814899,57.732272441148965,234.966528797125,35.94239955513897,151.247681734992,28.969316904143568,158.583676264571,40.95624637658364,251.579323520292,45.55477441796273,271.605421021082,46.08412061232664,155.868412249169,27.676265223134717,113.53273766378
Subj_03_MMH_Bim_L_02kg_Trial_3_EMG_data.csv,0,1.77001953125,1.769775390625,1.780029296875,0,0,0.0013286294358716981,0.0006220694683389976,0.00330534,0.0017334197903974844,0.0005792519411548294,0.0034947398,0.0030555132621031445,0.0007355383381063029,0.0053581242,0.004148546242472956,0.0009111116510379075,0.0065277102,-0.011800396206714466,0.0006851918650609172,0.0136965755,-0.013605934230188677,0.0007359064217431779,0.0154498108,-0.0006496470535798742,0.0008557230322991994,0.0031245232,-0.0022071834981484276,0.000745872765294843,0.0046932222,53.38451615918163,352.604810723558,64.0108984197045,303.842922055224,35.096518593423724,270.664914384241,42.44136856983958,278.202381352955,45.94799398098437,320.510732854526,49.61517731312402,348.732506487968,55.562578398682916,295.840858311907,36.21398150276198,171.169410127388
Subj_03_MMH_Bim_L_08kg_Trial_1_EMG_data.csv,0,1.909912109375,1.89990234375,1.91015625,0,0,6.491429879279286e-05,0.0013847550715773303,0.0036752701,0.0005424889377709138,0.0013541309071348807,0.0039376263,0.0011632003219948519,0.0016242703994725552,0.0184046756,0.0027286257541132564,0.0014970013228692886,0.0066421512,-0.012695005673379665,0.0009108911864197216,0.014553166,-0.014900486520936935,0.0010725956348724736,0.0168133751,-0.0016929879890888032,0.0012554483632943696,0.0054634097,-0.003698500192113256,0.0015400375482844514,0.0075376513,96.36066339268469,529.277302721832,97.5656527392176,449.02245645412,86.53386736929714,4093.50837668743,74.1641888967089,372.766957038758,63.766109515290864,323.195413895852,76.05868805681372,353.315711864832,119.20491991178332,537.761531747156,77.50023560886262,334.414731747859
Subj_03_MMH_Bim_L_08kg_Trial_2_EMG_data.csv,0,1.880126953125,1.8798828125,1.89013671875,0,0,-0.0031164059866666664,0.0007286015990231886,0.0050085071,-0.002442376355286475,0.000696102059425364,0.0044606212,-0.0016735233792779553,0.0008008639455687827,0.0037156106,0.000634856666828541,0.000977935512358226,0.0032841684,-0.015056413117942492,0.0005334401683728167,0.016430283,-0.01710671260342066,0.0006713238818284849,0.0182252899,-0.004210665847542066,0.0008175852577571299,0.0064470293,-0.00607550290572098,0.0008437551580560113,0.0081830984,100.47550391630993,630.265002902509,99.23681012205611,581.534395191608,82.46603218889373,428.158777330447,87.63415181207225,394.046150386051,79.74948714520974,434.476046039611,92.52966124298334,474.527349949382,132.0675166410795,556.910265252933,92.25508866704024,378.769661885933
Subj_03_MMH_Bim_L_08kg_Trial_3_EMG_data.csv,0,1.85009765625,1.849853515625,1.860107421875,0,0,-0.005061782726185447,0.0021291426892651867,0.0086437231,-0.00431285690999061,0.0021750316062269033,0.0081559187,-0.004075935384694836,0.0020177847098714137,0.0075213434,-0.001379762046197183,0.0018796524181210557,0.0046136859,-0.016345122138922537,0.0014165776272195485,0.0187723171,-0.01828711616406338,0.0013703251039688124,0.0207278263,-0.005809869041521127,0.0017409111647130886,0.009376145,-0.007696224363598592,0.0019053163471237893,0.011018944,93.20158551960319,610.78667369029,99.95476213064353,608.482145144689,73.33975287148868,426.747846890128,82.20880040629261,342.883185806192,78.73354290495016,538.797373882202,86.63368018528564,567.912737238076,142.53146833505596,492.691463380391,95.42482442730815,372.518900220337
Subj_03_MMH_Bim_L_12kg_Trial_1_EMG_data.csv,0,1.8701171875,1.869873046875,1.880126953125,0,0,-0.00488005695197619,0.002588583607644615,0.0109454161,-0.0047616946943528134,0.0028560968850829373,0.0115888603,-0.004468622551909091,0.0025225135953756113,0.0101182945,-0.0018382195700194805,0.0022058236367007867,0.0066475873,-0.017210889848608225,0.0014080066108041332,0.0206563007,-0.019065484334651515,0.001353696510329294,0.0223720558,-0.006256081767612554,0.0019207302071211473,0.0107491501,-0.007618030056813853,0.002574579731552572,0.0134470947,144.22585179745468,707.131024341533,132.09095726105622,866.635654160225,140.88066396432544,541.296365013973,146.0220095808853,486.258083737268,100.3857297115956,531.578735654593,119.24067285355636,548.099069154527,194.43158952048287,639.086781682584,130.00931073373536,460.764076754686
Subj_03_MMH_Bim_L_12kg_Trial_2_EMG_data.csv,0,1.7900390625,1.789794921875,1.800048828125,0,0,-0.010839251708499458,0.002808370870375494,0.0155682573,-0.010774038149878392,0.0031841866294577467,0.0160680786,-0.009391740238514657,0.0027049632682726726,0.0140570644,-0.005878485339952226,0.00208392095281846,0.0098473551,-0.020880444566760043,0.001494065860308421,0.0243879333,-0.022181290026679696,0.0010143828157946257,0.0255266204,-0.010570721040534203,0.0024595739859688596,0.0155556686,-0.012315104481042345,0.002340954552891295,0.0170019157,132.93183238091694,584.821043427166,126.8476348478791,512.393025499098,131.68759239369177,531.915480688515,124.1313098913341,451.500345698507,93.43843692942687,350.304085693448,110.57607251592275,416.249798688678,177.51833443003,579.446022515399,128.6664445257313,435.165968384844
Subj_03_MMH_Bim_L_12kg_Trial_3_EMG_data.csv,0,1.889892578125,1.8798828125,1.89013671875,0,0,-0.008991470380716451,0.0017700872578649256,0.0123779299,-0.009618044427709957,0.0020274296603872547,0.0137955667,-0.008436322501242424,0.002117602823438585,0.0132342344,-0.0043398660707207794,0.001833606501313279,0.0082757957,-0.02149677669021645,0.000791657571514044,0.0234789867,-0.021897406682677492,0.0007904432934704473,0.0237802509,-0.009414713983478354,0.0014698232212440776,0.0141503336,-0.01025335766471645,0.0016575058385503172,0.0146716125,140.01993144906123,597.590047440208,137.87791897814327,617.369832402241,133.8276962621664,611.491366013391,130.50788430690258,457.596125231945,108.8604353293533,524.561793501937,130.18922215639273,619.384128155913,220.95781001503698,823.243157027222,141.17649848221384,551.048039013481
Subj_03_MMH_Bim_R_02kg_Trial_1_EMG_data.csv,0,1.900146484375,1.89990234375,1.91015625,0,0,-0.006766251393439,0.0005359945992412993,0.0079745296,-0.006615973204115274,0.000678804595916357,0.0081705097,-0.007939330812034582,0.000246443199591348,0.0084952358,-0.006268986287763689,0.00016680177881224544,0.0070192339,-0.015010971785711816,0.0019295910285600315,0.019015789,-0.016953450882340057,0.0017945928495156135,0.0205204021,-0.007133346267600384,0.00033139159461154414,0.0079313284,-0.007218325437129683,0.0007592410479391903,0.0089286808,54.558828870208906,277.349914308679,52.769339950209876,280.247055310353,30.836541774286577,124.926289425729,27.52863816255527,110.73216411571,24.86748510195036,122.761362480963,28.064147254472633,126.689331560065,36.68747466377005,147.439048553865,33.94096232351208,153.006621204451
Subj_03_MMH_Bim_R_02kg_Trial_2_EMG_data.csv,0,1.909912109375,1.89990234375,1.91015625,0,0,-0.006660054441381916,0.00022405680150632112,0.0074784281,-0.006329473241827261,0.0002827049266832958,0.0077565196,-0.008720387018642374,0.0006605922885726439,0.0116578108,-0.0061474472270121455,0.0002871647412512431,0.0067903521,-0.015003707988998652,0.0018244326425910038,0.0220733657,-0.016734784690909582,0.0017291954337884375,0.0235533733,-0.007943749500021592,0.0010238799999396431,0.0114355087,-0.007715240323441297,0.001167553379740353,0.0116017349,62.660835914900524,310.294984302605,61.579791437107694,263.282845757343,26.450072645030218,138.118804177525,28.097734241911365,111.226166486715,31.555250109638727,313.928797683714,35.9890983551618,345.546396819354,35.59704173778382,184.848889971784,32.280105873654456,156.419205672191
Subj_03_MMH_Bim_R_02kg_Trial_3_EMG_data.csv,0,1.760009765625,1.759765625,1.77001953125,0,0,-0.012386193131133334,0.0005832524733285162,0.0137666706,-0.012870926366437038,0.000667530772247889,0.0144576076,-0.013509588341711112,0.0007762191279541591,0.0149356844,-0.009818122497604938,0.0007390868002450577,0.0118658068,-0.026262116565432096,0.0003543231475219457,0.0272023212,-0.026790687261958025,0.00035161100390421375,0.027800275,-0.01263306193834321,0.0006090986503317412,0.0150252348,-0.012930248639676544,0.0005991573952252077,0.0154569633,65.05046471749375,318.282295673615,62.46609996054024,292.560202700203,36.918580797292414,232.418307293131,34.75150562440509,256.136048819962,30.705896567482537,143.479617978877,33.41894585452726,156.246608177784,41.91421613529726,197.017659229435,40.08910952192566,188.693065745392
Subj_03_MMH_Bim_R_08kg_Trial_1_EMG_data.csv,0,1.8798828125,1.869873046875,1.880126953125,0,0,-0.01452825891656274,0.002095122006659278,0.0177915581,-0.01523317651417744,0.002343646741443137,0.0189488418,-0.01697471149895564,0.0027061435802099867,0.021375848,-0.013002242964811154,0.0025358073288478384,0.0174917225,-0.027661832479754123,0.0015402089586877717,0.0299737938,-0.027859731928420787,0.0013445694825317716,0.0300890934,-0.01642730890268948,0.0025174685127812937,0.0203810707,-0.017170891791178707,0.0026367461874125643,0.0216107368,150.09963249208576,609.059305084788,133.77560027622343,484.010520541089,90.1655871877102,527.698886856702,87.69106793419604,356.487737569441,56.61697853745921,312.320629261128,56.78269154856334,377.005578456213,78.82604842460667,351.65007615959,79.45387353128747,456.065395813382
Subj_03_MMH_Bim_R_08kg_Trial_2_EMG_data.csv,0,1.919921875,1.909912109375,1.920166015625,0,0,-0.017270894872728072,0.0007013934948130594,0.0186000839,-0.018482139965111843,0.0006959305662086027,0.0197610855,-0.018832049807980263,0.0012238431759528858,0.0207392704,-0.014600795356462718,0.0010534511127083968,0.0168368351,-0.030195756764583335,0.0006041384765882117,0.0313522369,-0.030520199384535086,0.00038737401209412465,0.0317038558,-0.017598389196848686,0.001011443973621509,0.0197768211,-0.01906008368942544,0.001078815375705827,0.021173574,166.76943639578587,606.438636190705,193.45993716642565,641.413358829014,108.83241990154983,511.3801412874,99.69163590384856,347.897424438389,60.54217423473982,265.94953171188,69.61647417058414,309.058735252427,69.83609476288282,277.683806652394,71.64234767283796,270.887545030057
Subj_03_MMH_Bim_R_08kg_Trial_3_EMG_data.csv,0,1.860107421875,1.85986328125,1.8701171875,0,0,-0.020917878657039146,0.002485569789541388,0.0246668831,-0.022675040287352313,0.002455945477581294,0.0264158268,-0.023638829192106765,0.0023395783189885193,0.0271574035,-0.018639264916771058,0.0023176188933224534,0.0221085548,-0.03188171598873072,0.0013322522892563102,0.0342298523,-0.032190969799803085,0.0011802105329500661,0.0343966484,-0.02155795627904626,0.0021726788130614957,0.0248528495,-0.023262961258998814,0.002125402785304063,0.0265686046,143.39679013444658,428.324851905837,182.0401696982776,636.879136436113,105.74205124785794,410.472360611675,79.80835103570587,290.915723351273,56.89997887679201,188.338292224138,60.5797174879717,205.414964276951,84.37194132355745,272.416056495255,75.65744489946388,258.166140841457
Subj_03_MMH_Bim_R_12kg_Trial_1_EMG_data.csv,0,1.8701171875,1.869873046875,1.880126953125,0,0,-0.020013132871533116,0.0035452521911051877,0.0268964786,-0.022376955529480998,0.004123431758642085,0.0300447475,-0.02393506453560695,0.004156354959453469,0.0309462566,-0.018372153483068403,0.0035115400335807736,0.0244471561,-0.03178115844764386,0.0015073142984218266,0.0348278061,-0.03201072137652117,0.0013954921167028788,0.0347362533,-0.021208210860536373,0.0030540156542968135,0.0266452804,-0.022727249743811073,0.003185597683151339,0.0286631603,159.8317121120568,606.378673274688,177.21866735224535,740.038085778489,123.12646035626426,507.46944928013,112.10904914768876,464.322828268274,79.7427746610614,249.491474321054,83.05332635391412,287.749206202086,111.46424858072788,3087.06421241992,105.02871681729307,415.251894028799
Subj_03_MMH_Bim_R_12kg_Trial_2_EMG_data.csv,0,1.85009765625,1.849853515625,1.860107421875,0,0,-0.02592970150837777,0.001951952774579421,0.031188298,-0.0278302138434075,0.0020772073739026794,0.0332877189,-0.02797068746239636,0.0015082702256358925,0.0315502174,-0.02196322169212194,0.0015788374615159253,0.0260381717,-0.035177148142302,0.00044757319026880195,0.0370199233,-0.0350873214639206,0.00038298168834401553,0.0368348137,-0.02401876844753078,0.0014395520466038024,0.0277224556,-0.026115004690086818,0.0018218608075791817,0.0311914459,147.20637190093777,660.52755394983,159.58038690248438,742.913115746489,135.52542883542625,544.708644143238,124.96950714793446,519.637327790086,77.62982521234514,335.649661881667,78.17366709448046,277.748504410474,111.72947779197861,417.198081775328,108.2178643517282,401.553928729456
Subj_03_MMH_Bim_R_12kg_Trial_3_EMG_data.csv,0,1.880126953125,1.8798828125,1.89013671875,0,0,-0.023890402132967743,0.0022468069910848436,0.0282740612,-0.026474190774090318,0.002719977071951779,0.0314220451,-0.02641181094945806,0.0025993800471701576,0.0312458053,-0.02031726978143656,0.0027282437593464603,0.0255140308,-0.03504549255159785,0.0006733360317714198,0.0364319831,-0.03539869804039785,0.0005285755037951913,0.0366431251,-0.021790665615120428,0.0021012751285248437,0.0369057655,-0.023844559712544084,0.0022513998679446687,0.0283052456,176.57922309129776,671.322401248908,175.0524725792081,560.494595441251,123.10092639716706,468.167811042268,120.80202037761006,412.642643717094,81.0903937473971,286.664610412733,80.32050951324365,274.217114284882,122.16328675756553,3064.37950958186,116.84505272298514,412.945879408889
Subj_03_MMH_One_L_02kg_Trial_1_EMG_data.csv,0,1.760009765625,1.75,1.760009765625,0,0,0.0027783913000661575,0.0025760895076414087,0.0105428696,0.0021106138046844787,0.002262237679853308,0.0077590947,0.002496107488361323,0.002639771071602341,0.0085473061,0.004803438922251909,0.002224069623093118,0.0130336769,-0.01618949982637659,0.0015536892927651912,0.0196449291,-0.0158874796083028,0.0020712708624676794,0.0201470386,-0.0012215718763435113,0.0016029399928485927,0.0185892116,-0.0011286019222620865,0.0019127831399974643,0.0057383538,82.47160968893948,1379.95505234194,112.38274967908806,1119.14398109576,85.40974116260328,524.73422470897,72.30608347053513,508.955508738109,64.66406079241796,270.911653294359,56.918192555486904,232.018071939693,145.49897106032694,1885.08813381964,69.36797386015847,330.837006560899
Subj_03_MMH_One_L_02kg_Trial_2_EMG_data.csv,0,1.829833984375,1.81982421875,1.830078125,0,0,0.0014935211176819337,0.001083803987129341,0.0069339755,0.0011675665225368956,0.0009654709803580857,0.0060636522,0.001380185632745547,0.0014771652968513466,0.0069314004,0.004313111356885496,0.0012826907768462897,0.0094636921,-0.016082913811002547,0.0008242288268941201,0.01836548,-0.016445137848997458,0.0008405110173890065,0.0186241157,-0.0020337746132900766,0.000867519099529701,0.0054708482,-0.0020930556013180664,0.0009852389646544813,0.0055718422,73.4363662760645,327.552589608618,96.97038584629902,328.70917405204,64.71180747206813,305.952487264147,69.50905760449722,440.517890076181,42.318806475054245,233.140004270993,34.313089789481765,131.432741152064,74.21068293030605,225.427731811607,66.56686291487766,188.397341343551
Subj_03_MMH_One_L_02kg_Trial_3_EMG_data.csv,0,1.77001953125,1.760009765625,1.77001953125,0,0,-0.0023633655101184666,0.0031061445535291044,0.0087535866,-0.0025988534896980255,0.00322908759120533,0.0091841705,-0.0029988324595191635,0.00330675701097317,0.0097389221,0.000251679550641115,0.0029811916052135175,0.0063431743,-0.017908857224910566,0.0016211763095411644,0.0214236267,-0.018239449050195124,0.0017572436640184942,0.0219566356,-0.0047935237866155635,0.0022463747557418504,0.0098267561,-0.005065611392260163,0.002445307401140111,0.010380364,53.557206118594294,396.13907375167,60.56726280562693,363.851770493242,52.995795025205624,304.083232935294,52.95278531593523,311.049927564306,45.69263472982164,177.278389124366,37.44209069751155,141.044841383136,75.94695118527112,236.072178688818,70.26429193857392,207.319054290219
Subj_03_MMH_One_L_04kg_Trial_1_EMG_data.csv,0,1.869873046875,1.85986328125,1.8701171875,0,0,-0.010217262824326797,0.0012755184963331872,0.0128826145,-0.00814359104262745,0.003914437235355621,0.0133286482,-0.01196374438705621,0.0014712391271190159,0.0145322802,-0.007591143564402613,0.001584741048380267,0.0104767801,-0.02389704791421438,0.0009708215154050414,0.0255832691,-0.02387179342873464,0.0010686572552159352,0.0254199039,-0.011584201759824837,0.0010922416581340324,0.0148055078,-0.012279686975231373,0.0012185327431861038,0.0148189552,92.99553796931188,396.704145115374,131.2434146695359,3215.71315970743,102.62026307540957,459.047895224138,108.36287459112442,676.681068661974,63.46284468687079,217.958886830128,49.578654592834795,197.427092412839,97.15241960897788,343.776164873185,95.10758949198748,314.461919087218
Subj_03_MMH_One_L_04kg_Trial_2_EMG_data.csv,0,1.8701171875,1.869873046875,1.880126953125,0,0,-0.01028316841389804,0.0011628369149891283,0.012772751,-0.00874497832179608,0.0011808930097526454,0.0119256023,-0.01171778499029281,0.0012925947470817558,0.0144484527,-0.008004992347354248,0.0013757337275396623,0.0107645988,-0.023584724175466667,0.0008548734370750589,0.0254470836,-0.023049215263735948,0.0012451817028443569,0.0252662674,-0.011320127222515033,0.0010978320550961611,0.013947201,-0.011928403225788236,0.0011709624766226196,0.0148369791,64.46445986116339,647.011545271478,99.06209286191208,411.811421759243,75.93398807824394,783.899581084199,63.79906629627878,715.027053029883,50.64822702359984,181.980653227782,41.34078842751443,171.254445280339,86.55672450610686,271.027822513569,87.9559653377846,284.795370550033
Subj_03_MMH_One_L_04kg_Trial_3_EMG_data.csv,0,1.830078125,1.829833984375,1.840087890625,0,0,-0.011238675557981921,0.000882068403517456,0.012922097,-0.010403091640413559,0.0010119553741183588,0.0131833078,-0.012829632205548024,0.0010149474876410011,0.0146475798,-0.008962625989432768,0.000997670472198591,0.0107837683,-0.024821130679148023,0.0006126010605016441,0.0279381759,-0.02476105320292655,0.0008505120559688515,0.026573468,-0.01227271089358644,0.0008116046775868464,0.0146933561,-0.012863320244341244,0.0009048085036774094,0.0148853306,105.46201525677517,396.016874242829,145.9097697396673,573.199102442041,88.89601838632888,410.553811886283,92.16884682667909,385.75181303667,62.986854465627935,302.147866298394,49.67379167488733,237.605424700589,99.13245473166906,332.344136626443,100.03179176049223,332.19235947625
Subj_03_MMH_One_R_02kg_Trial_1_EMG_data.csv,0,1.760009765625,1.759765625,1.77001953125,0,0,-0.010258987552247072,0.003857110366294588,0.018242741,-0.012274547074841317,0.003621776048384707,0.0195968635,-0.015446131253880724,0.004626586208093126,0.0244205482,-0.009326509706072418,0.004019892252766522,0.0180310253,-0.025367918258587863,0.003419524103075611,0.0314909965,-0.025000117440389772,0.00449041711385592,0.0328451172,-0.01140416095799361,0.0023192818111554864,0.0166331306,-0.01222592099276464,0.00295434504189665,0.0186873451,90.71601097925134,336.483754145462,95.71521562682453,417.266873065947,56.367644220175144,370.232998770133,48.072689989392615,310.668830552568,46.668544255900706,450.291238475089,61.89038347830037,612.132409659526,61.18805162768139,322.978533532541,60.214859762932754,241.82744108734
Subj_03_MMH_One_R_02kg_Trial_2_EMG_data.csv,0,1.75,1.75,1.760009765625,0,0,-0.014523732293481108,0.001286254162776832,0.016948415,-0.015821549353917098,0.0013646686409264552,0.0184604656,-0.017432282832623276,0.0014091549837931753,0.0211566929,-0.01078392587464497,0.0014018104168793193,0.0146704679,-0.030231826001354604,0.0010015989161035565,0.0324954987,-0.02980302419514752,0.0012421383737653928,0.0321527496,-0.012696340432075669,0.000957957917131788,0.0158343315,-0.01382776784861395,0.0009701714868499257,0.0170245171,68.92856159658085,447.208622876574,96.27166852963924,560.10922439845,58.91948090060888,379.793335480399,51.14648007881932,343.429221334888,46.995900516294,184.76132937688,60.65358536252552,459.261396514226,68.33556135711997,284.467316848069,69.24117549434679,246.00692453779
Subj_03_MMH_One_R_02kg_Trial_3_EMG_data.csv,0,1.72998046875,1.72998046875,1.740234375,0,0,-0.015003746532769953,0.0011904376179490699,0.0183809288,-0.01682662941666432,0.0011272732980520963,0.0200783741,-0.020076523055859156,0.0015614266098931484,0.0239301696,-0.01225181847669014,0.001476097734842953,0.0156194689,-0.030824734284481216,0.0010736683717508266,0.0327753089,-0.03115605146369718,0.0010835227779130725,0.0339428931,-0.014257254607511738,0.0010284262676888384,0.0179025661,-0.015099682227215963,0.0012381041236043083,0.0187216774,90.99808822187677,554.354379822292,94.92819539827536,578.959143411881,74.16097689181815,444.677267943352,64.4871607633944,360.644183044517,53.7007004246212,346.128989388714,55.33621064167203,407.947086294509,72.77903449358642,353.89667888183,61.81239269486221,289.981637614007
Subj_03_MMH_One_R_04kg_Trial_1_EMG_data.csv,0,1.83984375,1.829833984375,1.840087890625,0,0,-0.013017063784233654,0.0013295572879026688,0.0153368004,-0.015175988183706322,0.0014997731174480145,0.0179085732,-0.017070101102062165,0.0016019107728346992,0.0199862495,-0.009789404518531618,0.0017397590349919484,0.0128396992,-0.029346285262615217,0.0014005917652821893,0.0319659263,-0.029195478087894963,0.0014545524691653325,0.0315891281,-0.013151546608745977,0.0007969137494234287,0.0155179026,-0.014294541513751337,0.0010818171416507947,0.0163455978,103.92667450468194,359.232506957748,130.07841659040068,605.08667962818,98.69255155516458,4209.46755398204,86.48636340559592,293.268885400693,78.89635195136701,512.729543641917,83.83780558937679,650.398476066581,121.52928379168475,481.735521299543,119.47999169677448,361.25585605371
Subj_03_MMH_One_R_04kg_Trial_2_EMG_data.csv,0,1.830078125,1.829833984375,1.840087890625,0,0,-0.020295722777173054,0.0016179759054758987,0.022901345,-0.02275490623167712,0.0014886961047596338,0.0250994693,-0.025471434017505224,0.0015098855126161675,0.027946474,-0.01817787382697793,0.0018263960425914836,0.037228778,-0.033442951778778165,0.000976115717648927,0.0349362381,-0.03245012667579094,0.0011625309010772137,0.0341008194,-0.019741699487481997,0.0009781877018441968,0.0218504909,-0.021992148515937282,0.0010942361251609558,0.024676038,108.55065602741884,515.896334247765,113.54501901474879,873.30523508647,102.37955593920637,412.030470247979,88.42953117582248,3645.37668423073,79.39767573388495,443.612819432513,84.02145734436999,772.25886473808,100.87082624588727,356.99431326235,104.81155532031514,363.841813874783
Subj_03_MMH_One_R_04kg_Trial_3_EMG_data.csv,0,1.849853515625,1.83984375,1.85009765625,0,0,-0.017214088653642514,0.0014438101988674414,0.0204380043,-0.01941545958951691,0.0015110180793491818,0.0227351189,-0.02160092282012077,0.00197166220784995,0.0254508033,-0.01358897680987681,0.0024821605998495266,0.0182009712,-0.03197987265773188,0.0007671673775771811,0.0332668312,-0.03143734258644444,0.00090109238178299,0.0327632912,-0.01696400587902657,0.0014138122380626843,0.02029524,-0.018563605759222224,0.0016330126505062427,0.0224515926,70.22049991540652,294.713829282852,78.28380262778259,294.441275024065,78.79249099876884,355.634668428462,73.69615929450507,294.832195738178,73.8031657005806,270.281407255747,94.01639565352878,1077.16459806679,102.90829430530971,369.152367488303,93.02278184670753,313.215874287715
Subj_03_MVC_All_L_EMG_data.csv,0,1.919921875,1.909912109375,1.920166015625,0,0,0.004494483729666666,0.0004374045378087436,0.0061878208,0.00490677201768116,0.0005403412951734131,0.0067600254,0.005651631617347827,0.0006320947744933905,0.0079439171,0.0077493249953224635,0.0007369385065696777,0.0108478554,-0.011143093257637682,0.0008783525187744142,0.0122285848,-0.011560587029369565,0.0008294419281988777,0.0125653269,-0.00035868154778985516,0.0007880167872713527,0.0041965488,0.001701348891188406,0.0005279020833758004,0.0049035074,,,,,,,,,,,,,,,,
Subj_03_MVC_All_R_EMG_data.csv,0,1.8798828125,1.869873046875,1.880126953125,0,0,-0.008424404640735508,0.00036004947150009535,0.009024811,-0.009799670359315218,0.00028418216784147787,0.0103291515,-0.009929962878365941,0.00042953552744764636,0.0110020638,-0.004638178589503624,0.0005307464674720148,0.0053355219,-0.02424905584077536,0.0005469935583960381,0.0251389518,-0.024026594901652175,0.0004969103686743438,0.0250345245,-0.009629053687579709,0.0005053567535214339,0.0106421476,-0.009725974862481885,0.0008461996142543627,0.0113925934,,,,,,,,,,,,,,,,
